================================================================================
RAMAN SPECTROMETER DEBUG LOG
Timestamp: 2026-01-17T14:39:58.751920
================================================================================

--- CONFIGURATION ---
Port: /dev/ttyUSB0
Baudrate: 9600
Integration time: 200 ms
Timeout: 5.0 s
Expected data points: 2048
Min data points: 100

--- RAW DATA INFO ---
Total bytes received: 5236
Null bytes count: 0

--- RAW BYTES (first 500, hex) ---
61 0d 0a 41 43 4b 0d 0a 0d 0a 49 32 30 30 0d 0a 
41 43 4b 0d 0a 0d 0a 53 0d 0a 41 43 4b 0d 0a 30 
32 30 31 30 0d 0a 30 32 30 31 31 0d 0a 30 32 30 
31 32 0d 0a 30 32 30 32 34 0d 0a 30 32 30 31 36 
0d 0a 30 32 30 32 39 0d 0a 30 32 30 30 38 0d 0a 
30 32 30 32 35 0d 0a 30 32 30 32 32 0d 0a 30 32 
30 31 39 0d 0a 30 32 30 32 35 0d 0a 30 32 30 32 
35 0d 0a 30 32 30 33 37 0d 0a 30 32 30 33 33 0d 
0a 30 32 30 31 36 0d 0a 30 32 30 34 37 0d 0a 30 
32 30 35 31 0d 0a 30 32 30 34 37 0d 0a 30 32 30 
32 37 0d 0a 30 31 39 39 39 0d 0a 30 32 30 32 35 
0d 0a 30 32 30 31 35 0d 0a 30 32 30 32 36 0d 0a 
30 32 30 31 38 0d 0a 30 32 30 34 30 0d 0a 30 32 
30 32 39 0d 0a 30 32 30 31 39 0d 0a 30 32 30 33 
32 0d 0a 30 32 30 32 38 0d 0a 30 32 30 34 34 0d 
0a 30 32 30 35 37 0d 0a 30 32 30 38 34 0d 0a 30 
32 30 38 37 0d 0a 30 32 30 36 34 0d 0a 30 32 30 
31 38 0d 0a 30 32 30 32 36 0d 0a 30 32 30 33 35 
0d 0a 30 32 30 33 31 0d 0a 30 32 30 32 30 0d 0a 
30 32 30 30 34 0d 0a 30 32 30 34 36 0d 0a 30 32 
30 33 37 0d 0a 30 32 30 33 32 0d 0a 30 32 30 32 
33 0d 0a 30 32 30 38 30 0d 0a 30 32 30 36 39 0d 
0a 30 32 30 33 36 0d 0a 30 32 30 31 31 0d 0a 30 
32 30 32 37 0d 0a 30 32 30 33 34 0d 0a 30 32 30 
32 35 0d 0a 30 32 30 33 32 0d 0a 30 32 30 33 31 
0d 0a 30 32 30 36 31 0d 0a 30 32 30 38 37 0d 0a 
30 32 30 37 32 0d 0a 30 32 30 33 36 0d 0a 30 32 
30 37 36 0d 0a 30 32 30 38 39 0d 0a 30 32 30 37 
39 0d 0a 30 32 30 33 37 0d 0a 30 32 30 32 39 0d 
0a 30 32 30 33 34 0d 0a 30 32 30 33 36 0d 0a 30 
32 30 34 35 0d 0a 30 32 30 33 30 0d 0a 30 32 30 
33 38 0d 0a

--- RAW DATA AS STRING (first 1000 chars) ---
a
ACK

I200
ACK

S
ACK
02010
02011
02012
02024
02016
02029
02008
02025
02022
02019
02025
02025
02037
02033
02016
02047
02051
02047
02027
01999
02025
02015
02026
02018
02040
02029
02019
02032
02028
02044
02057
02084
02087
02064
02018
02026
02035
02031
02020
02004
02046
02037
02032
02023
02080
02069
02036
02011
02027
02034
02025
02032
02031
02061
02087
02072
02036
02076
02089
02079
02037
02029
02034
02036
02045
02030
02038
02038
02043
02020
02009
02010
02002
01997
02005
02024
02040
02054
02041
02045
02050
02045
02020
02024
02302
02379
02217
02115
02089
02068
02052
02048
02085
02060
02042
02055
02062
02055
02066
02077
02030
02040
02031
02035
02030
02043
02028
02014
02007
02019
02030
02031
02033
02009
02020
02010
02031
02024
02041
02036
02026
02000
02015
02039
02049
02084
02057
02025
02012
02030
02039
02058
02022
02036
02055
02032
02026
02032
020

--- PARSED VALUES ---
Total parsed values: 744
Min value: 200.0
Max value: 2379.0
Mean value: 2031.922
First 20 values: [2010.0, 2011.0, 2012.0, 2024.0, 2016.0, 2029.0, 2008.0, 2025.0, 2022.0, 2019.0, 2025.0, 2025.0, 2037.0, 2033.0, 2016.0, 2047.0, 2051.0, 2047.0, 2027.0, 1999.0]
Last 20 values: [2034.0, 2076.0, 2056.0, 2020.0, 1990.0, 2027.0, 2037.0, 2014.0, 2009.0, 2009.0, 2027.0, 2029.0, 2013.0, 2018.0, 2044.0, 2059.0, 2061.0, 2038.0, 2021.0, 200.0]

--- FULL SPECTRUM DATA (one value per line) ---
0	2010.0
1	2011.0
2	2012.0
3	2024.0
4	2016.0
5	2029.0
6	2008.0
7	2025.0
8	2022.0
9	2019.0
10	2025.0
11	2025.0
12	2037.0
13	2033.0
14	2016.0
15	2047.0
16	2051.0
17	2047.0
18	2027.0
19	1999.0
20	2025.0
21	2015.0
22	2026.0
23	2018.0
24	2040.0
25	2029.0
26	2019.0
27	2032.0
28	2028.0
29	2044.0
30	2057.0
31	2084.0
32	2087.0
33	2064.0
34	2018.0
35	2026.0
36	2035.0
37	2031.0
38	2020.0
39	2004.0
40	2046.0
41	2037.0
42	2032.0
43	2023.0
44	2080.0
45	2069.0
46	2036.0
47	2011.0
48	2027.0
49	2034.0
50	2025.0
51	2032.0
52	2031.0
53	2061.0
54	2087.0
55	2072.0
56	2036.0
57	2076.0
58	2089.0
59	2079.0
60	2037.0
61	2029.0
62	2034.0
63	2036.0
64	2045.0
65	2030.0
66	2038.0
67	2038.0
68	2043.0
69	2020.0
70	2009.0
71	2010.0
72	2002.0
73	1997.0
74	2005.0
75	2024.0
76	2040.0
77	2054.0
78	2041.0
79	2045.0
80	2050.0
81	2045.0
82	2020.0
83	2024.0
84	2302.0
85	2379.0
86	2217.0
87	2115.0
88	2089.0
89	2068.0
90	2052.0
91	2048.0
92	2085.0
93	2060.0
94	2042.0
95	2055.0
96	2062.0
97	2055.0
98	2066.0
99	2077.0
100	2030.0
101	2040.0
102	2031.0
103	2035.0
104	2030.0
105	2043.0
106	2028.0
107	2014.0
108	2007.0
109	2019.0
110	2030.0
111	2031.0
112	2033.0
113	2009.0
114	2020.0
115	2010.0
116	2031.0
117	2024.0
118	2041.0
119	2036.0
120	2026.0
121	2000.0
122	2015.0
123	2039.0
124	2049.0
125	2084.0
126	2057.0
127	2025.0
128	2012.0
129	2030.0
130	2039.0
131	2058.0
132	2022.0
133	2036.0
134	2055.0
135	2032.0
136	2026.0
137	2032.0
138	2042.0
139	2025.0
140	2022.0
141	2110.0
142	2115.0
143	2054.0
144	2049.0
145	2018.0
146	2006.0
147	2027.0
148	2030.0
149	2040.0
150	2043.0
151	2043.0
152	2031.0
153	2025.0
154	2027.0
155	2052.0
156	2024.0
157	2010.0
158	2019.0
159	2035.0
160	2054.0
161	2040.0
162	2042.0
163	2020.0
164	2017.0
165	1996.0
166	2010.0
167	2015.0
168	2044.0
169	2056.0
170	2033.0
171	2045.0
172	2024.0
173	2034.0
174	2014.0
175	2028.0
176	2011.0
177	2023.0
178	2034.0
179	2038.0
180	2026.0
181	2015.0
182	2026.0
183	2029.0
184	1999.0
185	1987.0
186	2016.0
187	2013.0
188	2015.0
189	2015.0
190	2026.0
191	2002.0
192	2010.0
193	2017.0
194	2050.0
195	2086.0
196	2054.0
197	2047.0
198	2024.0
199	2023.0
200	2008.0
201	2016.0
202	2032.0
203	2051.0
204	2024.0
205	1988.0
206	1999.0
207	2028.0
208	2040.0
209	2022.0
210	2035.0
211	2053.0
212	2023.0
213	2012.0
214	2073.0
215	2093.0
216	2081.0
217	2046.0
218	2026.0
219	2016.0
220	2022.0
221	2004.0
222	1966.0
223	1991.0
224	2011.0
225	2033.0
226	2022.0
227	2033.0
228	2034.0
229	2019.0
230	2016.0
231	2023.0
232	2055.0
233	2066.0
234	2029.0
235	2022.0
236	2041.0
237	2042.0
238	2050.0
239	2020.0
240	2003.0
241	2037.0
242	2077.0
243	2076.0
244	2058.0
245	2071.0
246	2077.0
247	2092.0
248	2070.0
249	2062.0
250	2055.0
251	2076.0
252	2069.0
253	2043.0
254	2035.0
255	2031.0
256	2030.0
257	2003.0
258	2010.0
259	2003.0
260	2015.0
261	2006.0
262	2003.0
263	2018.0
264	2009.0
265	2037.0
266	2045.0
267	2018.0
268	2005.0
269	2018.0
270	2028.0
271	2042.0
272	2035.0
273	2037.0
274	2006.0
275	2015.0
276	2004.0
277	2023.0
278	2038.0
279	2038.0
280	2057.0
281	2050.0
282	2065.0
283	2035.0
284	2015.0
285	2014.0
286	2036.0
287	2014.0
288	2022.0
289	2058.0
290	2089.0
291	2100.0
292	2050.0
293	2047.0
294	2060.0
295	2044.0
296	2022.0
297	2042.0
298	2030.0
299	2040.0
300	2019.0
301	2017.0
302	2027.0
303	2020.0
304	2042.0
305	2028.0
306	2032.0
307	2024.0
308	2023.0
309	2135.0
310	2175.0
311	2079.0
312	2057.0
313	2043.0
314	2036.0
315	2036.0
316	2041.0
317	2050.0
318	2026.0
319	2038.0
320	2030.0
321	2030.0
322	2026.0
323	2034.0
324	2012.0
325	2035.0
326	2043.0
327	1996.0
328	1990.0
329	2029.0
330	2070.0
331	2100.0
332	2089.0
333	2032.0
334	2008.0
335	2039.0
336	2056.0
337	2020.0
338	2016.0
339	2020.0
340	2014.0
341	2022.0
342	2061.0
343	2092.0
344	2063.0
345	2073.0
346	2047.0
347	2042.0
348	2053.0
349	2050.0
350	2021.0
351	2006.0
352	2003.0
353	1991.0
354	2033.0
355	2082.0
356	2101.0
357	2059.0
358	2034.0
359	2044.0
360	2066.0
361	2065.0
362	2057.0
363	2070.0
364	2055.0
365	2052.0
366	2049.0
367	2058.0
368	2045.0
369	2051.0
370	2047.0
371	2053.0
372	2036.0
373	2044.0
374	2052.0
375	2009.0
376	2007.0
377	2026.0
378	2053.0
379	2009.0
380	2040.0
381	2046.0
382	2040.0
383	2017.0
384	2004.0
385	2011.0
386	2015.0
387	2042.0
388	2024.0
389	2017.0
390	2019.0
391	2063.0
392	2037.0
393	2009.0
394	1988.0
395	1998.0
396	2015.0
397	2034.0
398	2035.0
399	2039.0
400	2047.0
401	2041.0
402	2042.0
403	2030.0
404	2064.0
405	2042.0
406	2011.0
407	1984.0
408	1996.0
409	2017.0
410	1989.0
411	1974.0
412	1999.0
413	1999.0
414	2002.0
415	2029.0
416	2011.0
417	2004.0
418	1980.0
419	1988.0
420	2002.0
421	2022.0
422	2059.0
423	2056.0
424	2034.0
425	2026.0
426	2044.0
427	2027.0
428	2030.0
429	2042.0
430	2070.0
431	2041.0
432	2011.0
433	2004.0
434	2004.0
435	2006.0
436	2031.0
437	2061.0
438	2040.0
439	2058.0
440	2083.0
441	2084.0
442	2041.0
443	2026.0
444	2028.0
445	2052.0
446	2038.0
447	2036.0
448	2043.0
449	2017.0
450	2007.0
451	1992.0
452	2029.0
453	2015.0
454	2017.0
455	2041.0
456	2054.0
457	2022.0
458	2012.0
459	2017.0
460	2033.0
461	2068.0
462	2050.0
463	2025.0
464	2019.0
465	2011.0
466	2001.0
467	2026.0
468	2018.0
469	2015.0
470	2045.0
471	2031.0
472	2024.0
473	2024.0
474	2046.0
475	2049.0
476	2050.0
477	2041.0
478	2066.0
479	2058.0
480	2027.0
481	2008.0
482	2014.0
483	2017.0
484	2003.0
485	2031.0
486	2022.0
487	2018.0
488	2004.0
489	2041.0
490	2037.0
491	2031.0
492	2011.0
493	2034.0
494	2036.0
495	2043.0
496	2063.0
497	2035.0
498	2037.0
499	2041.0
500	2024.0
501	2004.0
502	2041.0
503	2061.0
504	2079.0
505	2067.0
506	2042.0
507	2006.0
508	2023.0
509	2041.0
510	2038.0
511	2048.0
512	2009.0
513	1991.0
514	1999.0
515	2035.0
516	2035.0
517	2064.0
518	2079.0
519	2052.0
520	2031.0
521	2009.0
522	2025.0
523	2024.0
524	2047.0
525	2047.0
526	2039.0
527	2037.0
528	2031.0
529	2005.0
530	2019.0
531	2017.0
532	1992.0
533	2009.0
534	2028.0
535	2066.0
536	2047.0
537	2024.0
538	1991.0
539	2018.0
540	2023.0
541	2042.0
542	2030.0
543	2017.0
544	2017.0
545	1996.0
546	2034.0
547	2043.0
548	2066.0
549	2051.0
550	2040.0
551	2033.0
552	2045.0
553	2039.0
554	2055.0
555	2060.0
556	2060.0
557	2067.0
558	2058.0
559	2081.0
560	2068.0
561	2018.0
562	2006.0
563	2017.0
564	2004.0
565	2028.0
566	2041.0
567	2054.0
568	2066.0
569	2063.0
570	2022.0
571	1991.0
572	1999.0
573	2007.0
574	2025.0
575	2001.0
576	2002.0
577	1989.0
578	2003.0
579	2019.0
580	1982.0
581	1984.0
582	1997.0
583	2031.0
584	2051.0
585	2047.0
586	2051.0
587	2037.0
588	2009.0
589	2027.0
590	2029.0
591	2056.0
592	2040.0
593	2021.0
594	2015.0
595	2006.0
596	2041.0
597	2051.0
598	2054.0
599	2025.0
600	2014.0
601	2010.0
602	2045.0
603	2027.0
604	2010.0
605	2040.0
606	2037.0
607	2041.0
608	2034.0
609	2068.0
610	2052.0
611	2032.0
612	2016.0
613	2020.0
614	2020.0
615	2025.0
616	2033.0
617	2046.0
618	2015.0
619	1976.0
620	1981.0
621	1993.0
622	2007.0
623	1994.0
624	2006.0
625	2005.0
626	2009.0
627	2029.0
628	2068.0
629	2041.0
630	2006.0
631	2016.0
632	2012.0
633	2027.0
634	2019.0
635	2026.0
636	2025.0
637	2014.0
638	2090.0
639	2128.0
640	2084.0
641	2018.0
642	2038.0
643	2070.0
644	2082.0
645	2046.0
646	2030.0
647	2021.0
648	2031.0
649	2014.0
650	2015.0
651	2022.0
652	2038.0
653	2040.0
654	2037.0
655	2038.0
656	2045.0
657	2060.0
658	2037.0
659	2048.0
660	2026.0
661	2036.0
662	2061.0
663	2074.0
664	2060.0
665	2072.0
666	2063.0
667	2030.0
668	2030.0
669	2009.0
670	2013.0
671	2004.0
672	2027.0
673	2012.0
674	2017.0
675	2067.0
676	2034.0
677	2012.0
678	2047.0
679	2041.0
680	2041.0
681	2048.0
682	2074.0
683	2069.0
684	2036.0
685	2020.0
686	2000.0
687	2026.0
688	2068.0
689	2044.0
690	2035.0
691	2023.0
692	2000.0
693	1988.0
694	2025.0
695	2008.0
696	2028.0
697	2008.0
698	2008.0
699	2035.0
700	2015.0
701	2026.0
702	2034.0
703	2074.0
704	2049.0
705	2028.0
706	2014.0
707	2010.0
708	2024.0
709	2047.0
710	2044.0
711	2042.0
712	2008.0
713	2001.0
714	1990.0
715	1992.0
716	2036.0
717	2062.0
718	2049.0
719	2028.0
720	2057.0
721	2040.0
722	2052.0
723	2030.0
724	2034.0
725	2076.0
726	2056.0
727	2020.0
728	1990.0
729	2027.0
730	2037.0
731	2014.0
732	2009.0
733	2009.0
734	2027.0
735	2029.0
736	2013.0
737	2018.0
738	2044.0
739	2059.0
740	2061.0
741	2038.0
742	2021.0
743	200.0
