================================================================================
RAMAN SPECTROMETER DEBUG LOG
Timestamp: 2026-01-19T14:58:47.895965
================================================================================

--- CONFIGURATION ---
Port: /dev/ttyUSB0
Baudrate: 9600
Integration time: 2000 ms
Timeout: 10.0 s
Expected data points: 2048
Min data points: 2048

--- RAW DATA INFO ---
Total bytes received: 14371
Null bytes count: 1

--- RAW BYTES (first 500, hex) ---
61 0d 0a 41 43 4b 0d 0a 0d 0a 49 32 30 30 30 0d 
0a 41 43 4b 0d 0a 0d 0a 53 0d 0a 41 43 4b 0d 0a 
30 31 39 34 36 0d 0a 30 31 39 39 30 0d 0a 30 31 
39 36 36 0d 0a 30 31 39 30 37 0d 0a 30 31 39 30 
31 0d 0a 30 31 39 31 33 0d 0a 30 31 39 30 37 0d 
0a 30 31 39 31 34 0d 0a 30 31 39 31 30 0d 0a 30 
31 39 30 38 0d 0a 30 31 39 34 37 0d 0a 30 31 39 
33 36 0d 0a 30 31 39 31 31 0d 0a 30 31 38 39 36 
0d 0a 30 31 39 32 30 0d 0a 30 32 31 36 33 0d 0a 
30 32 32 34 35 0d 0a 30 32 31 33 33 0d 0a 30 32 
30 35 38 0d 0a 30 32 30 33 30 0d 0a 30 32 30 31 
37 0d 0a 30 32 30 32 38 0d 0a 30 32 31 30 38 0d 
0a 30 32 31 34 31 0d 0a 30 32 31 30 34 0d 0a 30 
32 30 36 34 0d 0a 30 32 30 33 37 0d 0a 30 32 30 
31 38 0d 0a 30 32 30 32 39 0d 0a 30 32 30 31 38 
0d 0a 30 32 32 35 34 0d 0a 30 32 33 37 30 0d 0a 
30 32 32 38 32 0d 0a 30 32 31 33 30 0d 0a 30 32 
30 37 39 0d 0a 30 32 30 34 35 0d 0a 30 32 30 31 
38 0d 0a 30 31 39 37 32 0d 0a 30 31 39 35 38 0d 
0a 30 31 39 37 32 0d 0a 30 32 30 30 32 0d 0a 30 
32 30 35 32 0d 0a 30 32 30 32 37 0d 0a 30 32 30 
34 33 0d 0a 30 32 34 31 37 0d 0a 30 32 34 37 36 
0d 0a 30 32 32 33 35 0d 0a 30 32 31 30 37 0d 0a 
30 32 30 32 39 0d 0a 30 32 30 30 38 0d 0a 30 31 
39 38 39 0d 0a 30 31 39 35 31 0d 0a 30 31 39 34 
36 0d 0a 30 31 39 35 31 0d 0a 30 31 39 39 31 0d 
0a 30 32 30 30 32 0d 0a 30 31 39 39 32 0d 0a 30 
32 32 30 32 0d 0a 30 32 32 34 34 0d 0a 30 32 31 
36 33 0d 0a 30 32 30 39 34 0d 0a 30 32 30 33 36 
0d 0a 30 31 39 38 38 0d 0a 30 31 39 37 34 0d 0a 
30 31 39 37 35 0d 0a 30 31 39 35 31 0d 0a 30 32 
31 35 35 0d

--- RAW DATA AS STRING (first 1000 chars) ---
a
ACK

I2000
ACK

S
ACK
01946
01990
01966
01907
01901
01913
01907
01914
01910
01908
01947
01936
01911
01896
01920
02163
02245
02133
02058
02030
02017
02028
02108
02141
02104
02064
02037
02018
02029
02018
02254
02370
02282
02130
02079
02045
02018
01972
01958
01972
02002
02052
02027
02043
02417
02476
02235
02107
02029
02008
01989
01951
01946
01951
01991
02002
01992
02202
02244
02163
02094
02036
01988
01974
01975
01951
02155
02188
02117
02092
02084
02056
02045
02011
01997
01987
01969
01965
01949
01980
01994
02006
02007
02000
04206
04718
03446
02755
02384
02192
02085
02079
02320
02346
02168
02102
02048
02006
01974
02036
02102
02072
02097
02087
02049
01990
01972
01965
02002
02030
02018
01995
02029
02025
02006
02019
01988
01995
02013
02073
02063
02034
02041
02094
02098
02078
02092
02046
02025
01999
02006
02016
01987
02102
02131
02078
02019
01982
01

--- PARSED VALUES ---
Total parsed values: 2048
Min value: 1896.0
Max value: 4718.0
Mean value: 2180.816
First 20 values: [1946.0, 1990.0, 1966.0, 1907.0, 1901.0, 1913.0, 1907.0, 1914.0, 1910.0, 1908.0, 1947.0, 1936.0, 1911.0, 1896.0, 1920.0, 2163.0, 2245.0, 2133.0, 2058.0, 2030.0]
Last 20 values: [3066.0, 2786.0, 2592.0, 2300.0, 2159.0, 2505.0, 2543.0, 2235.0, 2096.0, 2060.0, 2289.0, 2361.0, 2248.0, 2154.0, 2095.0, 2101.0, 2044.0, 2051.0, 2063.0, 2023.0]

--- FULL SPECTRUM DATA (one value per line) ---
0	1946.0
1	1990.0
2	1966.0
3	1907.0
4	1901.0
5	1913.0
6	1907.0
7	1914.0
8	1910.0
9	1908.0
10	1947.0
11	1936.0
12	1911.0
13	1896.0
14	1920.0
15	2163.0
16	2245.0
17	2133.0
18	2058.0
19	2030.0
20	2017.0
21	2028.0
22	2108.0
23	2141.0
24	2104.0
25	2064.0
26	2037.0
27	2018.0
28	2029.0
29	2018.0
30	2254.0
31	2370.0
32	2282.0
33	2130.0
34	2079.0
35	2045.0
36	2018.0
37	1972.0
38	1958.0
39	1972.0
40	2002.0
41	2052.0
42	2027.0
43	2043.0
44	2417.0
45	2476.0
46	2235.0
47	2107.0
48	2029.0
49	2008.0
50	1989.0
51	1951.0
52	1946.0
53	1951.0
54	1991.0
55	2002.0
56	1992.0
57	2202.0
58	2244.0
59	2163.0
60	2094.0
61	2036.0
62	1988.0
63	1974.0
64	1975.0
65	1951.0
66	2155.0
67	2188.0
68	2117.0
69	2092.0
70	2084.0
71	2056.0
72	2045.0
73	2011.0
74	1997.0
75	1987.0
76	1969.0
77	1965.0
78	1949.0
79	1980.0
80	1994.0
81	2006.0
82	2007.0
83	2000.0
84	4206.0
85	4718.0
86	3446.0
87	2755.0
88	2384.0
89	2192.0
90	2085.0
91	2079.0
92	2320.0
93	2346.0
94	2168.0
95	2102.0
96	2048.0
97	2006.0
98	1974.0
99	2036.0
100	2102.0
101	2072.0
102	2097.0
103	2087.0
104	2049.0
105	1990.0
106	1972.0
107	1965.0
108	2002.0
109	2030.0
110	2018.0
111	1995.0
112	2029.0
113	2025.0
114	2006.0
115	2019.0
116	1988.0
117	1995.0
118	2013.0
119	2073.0
120	2063.0
121	2034.0
122	2041.0
123	2094.0
124	2098.0
125	2078.0
126	2092.0
127	2046.0
128	2025.0
129	1999.0
130	2006.0
131	2016.0
132	1987.0
133	2102.0
134	2131.0
135	2078.0
136	2019.0
137	1982.0
138	1957.0
139	1948.0
140	1984.0
141	2764.0
142	2964.0
143	2502.0
144	2250.0
145	2101.0
146	2145.0
147	2109.0
148	2175.0
149	2197.0
150	2092.0
151	2036.0
152	2000.0
153	2022.0
154	2005.0
155	2038.0
156	2038.0
157	2022.0
158	2041.0
159	1998.0
160	1995.0
161	1989.0
162	2146.0
163	2166.0
164	2064.0
165	2015.0
166	1995.0
167	2033.0
168	2036.0
169	2014.0
170	1999.0
171	2044.0
172	2029.0
173	1989.0
174	1969.0
175	1996.0
176	2011.0
177	1968.0
178	1973.0
179	1991.0
180	2013.0
181	1988.0
182	1974.0
183	1965.0
184	1951.0
185	1973.0
186	1984.0
187	1955.0
188	1919.0
189	2128.0
190	2173.0
191	2067.0
192	2000.0
193	1977.0
194	2023.0
195	2089.0
196	2134.0
197	2143.0
198	2122.0
199	2089.0
200	2087.0
201	2038.0
202	2052.0
203	2026.0
204	1995.0
205	1979.0
206	1947.0
207	1931.0
208	1974.0
209	1989.0
210	1994.0
211	2032.0
212	2000.0
213	2157.0
214	2590.0
215	2565.0
216	2298.0
217	2180.0
218	2104.0
219	2068.0
220	2065.0
221	2021.0
222	1991.0
223	1970.0
224	1974.0
225	2004.0
226	2000.0
227	1984.0
228	1971.0
229	1971.0
230	1952.0
231	2012.0
232	2013.0
233	2395.0
234	2491.0
235	2238.0
236	2098.0
237	2039.0
238	2137.0
239	2112.0
240	2060.0
241	2743.0
242	2935.0
243	2703.0
244	2534.0
245	2286.0
246	2211.0
247	2490.0
248	2470.0
249	2247.0
250	2129.0
251	2079.0
252	2073.0
253	2090.0
254	2052.0
255	2054.0
256	2053.0
257	1997.0
258	1969.0
259	1940.0
260	1984.0
261	2009.0
262	1995.0
263	2012.0
264	2011.0
265	2483.0
266	2561.0
267	2295.0
268	2147.0
269	2101.0
270	2066.0
271	1997.0
272	1982.0
273	1988.0
274	2007.0
275	1980.0
276	2003.0
277	1991.0
278	1952.0
279	1929.0
280	1958.0
281	1980.0
282	1985.0
283	2000.0
284	1995.0
285	1966.0
286	1961.0
287	2027.0
288	2029.0
289	1985.0
290	1973.0
291	1969.0
292	1999.0
293	2006.0
294	2001.0
295	2009.0
296	2017.0
297	1971.0
298	1931.0
299	1991.0
300	2030.0
301	2074.0
302	2059.0
303	2064.0
304	2056.0
305	2030.0
306	1995.0
307	1985.0
308	1980.0
309	3150.0
310	3571.0
311	2912.0
312	2447.0
313	2188.0
314	2262.0
315	2249.0
316	2144.0
317	2067.0
318	2009.0
319	1997.0
320	1990.0
321	1990.0
322	1955.0
323	1954.0
324	1933.0
325	1962.0
326	1976.0
327	1969.0
328	1972.0
329	2235.0
330	2327.0
331	2348.0
332	2284.0
333	2150.0
334	2118.0
335	2289.0
336	2298.0
337	2154.0
338	2040.0
339	2021.0
340	2006.0
341	2030.0
342	2016.0
343	2029.0
344	2023.0
345	2007.0
346	2030.0
347	2004.0
348	2020.0
349	2014.0
350	2040.0
351	2017.0
352	1999.0
353	1993.0
354	1999.0
355	2038.0
356	2044.0
357	2049.0
358	2023.0
359	2031.0
360	2009.0
361	2028.0
362	2025.0
363	1999.0
364	1991.0
365	2011.0
366	2000.0
367	2001.0
368	1995.0
369	1965.0
370	1979.0
371	1988.0
372	1995.0
373	1966.0
374	1954.0
375	1952.0
376	2032.0
377	2109.0
378	2109.0
379	2063.0
380	2082.0
381	2081.0
382	2025.0
383	2009.0
384	2019.0
385	2045.0
386	2068.0
387	2064.0
388	2089.0
389	2054.0
390	2018.0
391	2227.0
392	2268.0
393	2115.0
394	2039.0
395	2022.0
396	2070.0
397	2055.0
398	1993.0
399	1987.0
400	1970.0
401	1974.0
402	1956.0
403	1959.0
404	2170.0
405	2202.0
406	2077.0
407	2030.0
408	2011.0
409	2007.0
410	2009.0
411	1988.0
412	2023.0
413	1999.0
414	1971.0
415	1965.0
416	1967.0
417	1983.0
418	1957.0
419	2113.0
420	2158.0
421	2174.0
422	2307.0
423	2253.0
424	2094.0
425	2012.0
426	1980.0
427	1970.0
428	2046.0
429	2067.0
430	2053.0
431	2037.0
432	2049.0
433	2060.0
434	2020.0
435	2004.0
436	2104.0
437	2125.0
438	2027.0
439	2027.0
440	2378.0
441	2415.0
442	2184.0
443	2072.0
444	2048.0
445	2271.0
446	2323.0
447	2156.0
448	2147.0
449	2100.0
450	2032.0
451	1989.0
452	1984.0
453	1986.0
454	1962.0
455	2023.0
456	2018.0
457	2005.0
458	1997.0
459	2097.0
460	2101.0
461	2123.0
462	2149.0
463	2070.0
464	2044.0
465	2030.0
466	2055.0
467	2023.0
468	2002.0
469	1979.0
470	1960.0
471	1978.0
472	2003.0
473	2040.0
474	2217.0
475	2267.0
476	2141.0
477	2101.0
478	2179.0
479	2248.0
480	2210.0
481	2093.0
482	2038.0
483	2012.0
484	1980.0
485	1986.0
486	2023.0
487	2013.0
488	1980.0
489	1968.0
490	1953.0
491	1953.0
492	2042.0
493	2124.0
494	2100.0
495	2066.0
496	2071.0
497	2054.0
498	2042.0
499	2009.0
500	2014.0
501	1998.0
502	2029.0
503	1999.0
504	2006.0
505	2012.0
506	1972.0
507	1952.0
508	1926.0
509	1940.0
510	1942.0
511	1977.0
512	1999.0
513	2012.0
514	2000.0
515	1993.0
516	1986.0
517	2072.0
518	2345.0
519	2352.0
520	2229.0
521	2137.0
522	2093.0
523	2053.0
524	2034.0
525	2035.0
526	2005.0
527	1990.0
528	1941.0
529	1992.0
530	2002.0
531	2009.0
532	2010.0
533	2007.0
534	1985.0
535	1954.0
536	2005.0
537	2033.0
538	1997.0
539	1957.0
540	1998.0
541	2022.0
542	2042.0
543	2054.0
544	2058.0
545	2029.0
546	1980.0
547	1942.0
548	1982.0
549	2017.0
550	2071.0
551	2091.0
552	2070.0
553	2063.0
554	2025.0
555	1986.0
556	1988.0
557	2006.0
558	2003.0
559	1968.0
560	1979.0
561	1988.0
562	1968.0
563	1969.0
564	2050.0
565	2049.0
566	2022.0
567	2056.0
568	2037.0
569	2052.0
570	2016.0
571	1986.0
572	1955.0
573	2011.0
574	2013.0
575	1991.0
576	1990.0
577	1971.0
578	1946.0
579	1928.0
580	1984.0
581	1989.0
582	2008.0
583	1983.0
584	1953.0
585	1984.0
586	2014.0
587	2043.0
588	2021.0
589	2006.0
590	1992.0
591	2055.0
592	2090.0
593	2020.0
594	1993.0
595	1959.0
596	2188.0
597	2344.0
598	2249.0
599	2109.0
600	2028.0
601	1970.0
602	1959.0
603	1961.0
604	1964.0
605	2059.0
606	2065.0
607	2054.0
608	2046.0
609	2351.0
610	2376.0
611	2167.0
612	2054.0
613	2006.0
614	2001.0
615	1969.0
616	1989.0
617	1982.0
618	1981.0
619	1960.0
620	1956.0
621	1974.0
622	1966.0
623	1982.0
624	2068.0
625	2123.0
626	2055.0
627	2026.0
628	1997.0
629	1967.0
630	1953.0
631	1951.0
632	1993.0
633	1986.0
634	1978.0
635	1960.0
636	1982.0
637	1986.0
638	3086.0
639	3328.0
640	2678.0
641	2339.0
642	2125.0
643	2281.0
644	2315.0
645	2186.0
646	2081.0
647	2019.0
648	1991.0
649	1991.0
650	1988.0
651	1944.0
652	1978.0
653	1976.0
654	1951.0
655	1986.0
656	2048.0
657	2016.0
658	2020.0
659	2077.0
660	2054.0
661	2009.0
662	2142.0
663	2174.0
664	2091.0
665	2070.0
666	2089.0
667	2104.0
668	2041.0
669	1969.0
670	1961.0
671	1946.0
672	1992.0
673	1990.0
674	1999.0
675	2003.0
676	1950.0
677	1929.0
678	1905.0
679	1897.0
680	2000.0
681	2086.0
682	2069.0
683	2048.0
684	2011.0
685	1990.0
686	1974.0
687	1940.0
688	2263.0
689	2350.0
690	2187.0
691	2061.0
692	2044.0
693	2171.0
694	2202.0
695	2101.0
696	2021.0
697	1974.0
698	1965.0
699	2056.0
700	2053.0
701	2037.0
702	1979.0
703	1976.0
704	2022.0
705	2043.0
706	2019.0
707	2008.0
708	2080.0
709	2063.0
710	2191.0
711	2201.0
712	2087.0
713	1987.0
714	1945.0
715	1949.0
716	1954.0
717	2141.0
718	2205.0
719	2218.0
720	2201.0
721	2142.0
722	2075.0
723	2064.0
724	2047.0
725	2223.0
726	2240.0
727	2093.0
728	2024.0
729	1978.0
730	2001.0
731	1986.0
732	1991.0
733	2017.0
734	2223.0
735	2260.0
736	2512.0
737	2575.0
738	2384.0
739	2232.0
740	2090.0
741	2032.0
742	2014.0
743	1999.0
744	1983.0
745	1971.0
746	1963.0
747	2235.0
748	2334.0
749	2178.0
750	2064.0
751	1963.0
752	2053.0
753	2097.0
754	2045.0
755	2034.0
756	1992.0
757	2231.0
758	2286.0
759	2150.0
760	2068.0
761	2017.0
762	1997.0
763	2001.0
764	2028.0
765	1990.0
766	1982.0
767	1963.0
768	1981.0
769	1964.0
770	1940.0
771	1915.0
772	1925.0
773	1999.0
774	2029.0
775	2035.0
776	1996.0
777	2001.0
778	2012.0
779	1984.0
780	1968.0
781	1994.0
782	1979.0
783	1991.0
784	1997.0
785	1960.0
786	1960.0
787	2003.0
788	2054.0
789	2030.0
790	2022.0
791	2021.0
792	1993.0
793	1983.0
794	1955.0
795	1972.0
796	1968.0
797	1988.0
798	2015.0
799	2110.0
800	2136.0
801	2067.0
802	2011.0
803	1975.0
804	2039.0
805	2044.0
806	2051.0
807	2005.0
808	1994.0
809	1984.0
810	1966.0
811	1971.0
812	2127.0
813	2199.0
814	2077.0
815	2016.0
816	1980.0
817	2013.0
818	2017.0
819	2058.0
820	2094.0
821	2067.0
822	2071.0
823	2033.0
824	2014.0
825	2006.0
826	2006.0
827	2086.0
828	2117.0
829	2073.0
830	2025.0
831	2010.0
832	1986.0
833	2044.0
834	2074.0
835	2047.0
836	2024.0
837	2002.0
838	1978.0
839	1942.0
840	1954.0
841	1998.0
842	2031.0
843	2012.0
844	2010.0
845	1987.0
846	1992.0
847	1999.0
848	1945.0
849	1961.0
850	1989.0
851	2050.0
852	2271.0
853	2281.0
854	2086.0
855	2336.0
856	2386.0
857	2236.0
858	2161.0
859	2120.0
860	2098.0
861	2029.0
862	2081.0
863	2087.0
864	2064.0
865	2012.0
866	1937.0
867	1940.0
868	1972.0
869	1994.0
870	1985.0
871	2059.0
872	2106.0
873	2053.0
874	2040.0
875	2045.0
876	2035.0
877	1984.0
878	1990.0
879	1988.0
880	1981.0
881	1985.0
882	1984.0
883	1958.0
884	1940.0
885	1964.0
886	2005.0
887	2011.0
888	1975.0
889	1940.0
890	1942.0
891	1988.0
892	1983.0
893	1985.0
894	1976.0
895	1975.0
896	1965.0
897	1954.0
898	1963.0
899	2043.0
900	2095.0
901	2034.0
902	2024.0
903	2161.0
904	2197.0
905	2101.0
906	2110.0
907	2121.0
908	2303.0
909	2317.0
910	2138.0
911	2074.0
912	2061.0
913	2048.0
914	2059.0
915	2038.0
916	2022.0
917	2742.0
918	2929.0
919	2477.0
920	2242.0
921	2109.0
922	2020.0
923	1977.0
924	1969.0
925	1974.0
926	1956.0
927	1978.0
928	1953.0
929	1936.0
930	1999.0
931	2045.0
932	1989.0
933	1964.0
934	2047.0
935	2082.0
936	2055.0
937	2036.0
938	2157.0
939	2176.0
940	2091.0
941	2030.0
942	1992.0
943	1973.0
944	1975.0
945	2003.0
946	1985.0
947	2015.0
948	2037.0
949	2013.0
950	1972.0
951	1947.0
952	1959.0
953	1982.0
954	2013.0
955	2018.0
956	2036.0
957	2018.0
958	2013.0
959	2006.0
960	1998.0
961	2003.0
962	2116.0
963	2148.0
964	2064.0
965	2041.0
966	2037.0
967	2034.0
968	2006.0
969	2006.0
970	1995.0
971	2048.0
972	2074.0
973	2050.0
974	2043.0
975	2007.0
976	2041.0
977	2035.0
978	2038.0
979	2018.0
980	2006.0
981	2010.0
982	2001.0
983	2779.0
984	2946.0
985	2498.0
986	2222.0
987	2137.0
988	2110.0
989	2064.0
990	2063.0
991	2038.0
992	2022.0
993	1999.0
994	2021.0
995	2234.0
996	2315.0
997	2215.0
998	2177.0
999	2145.0
1000	2109.0
1001	2115.0
1002	2085.0
1003	2101.0
1004	2103.0
1005	2115.0
1006	2111.0
1007	2138.0
1008	2159.0
1009	2148.0
1010	2196.0
1011	2229.0
1012	2248.0
1013	2262.0
1014	2307.0
1015	2290.0
1016	2284.0
1017	2332.0
1018	2358.0
1019	2363.0
1020	2362.0
1021	2409.0
1022	2380.0
1023	2335.0
1024	2312.0
1025	2310.0
1026	2317.0
1027	2326.0
1028	2422.0
1029	2523.0
1030	2545.0
1031	2464.0
1032	2417.0
1033	2444.0
1034	2482.0
1035	2486.0
1036	2517.0
1037	2560.0
1038	2511.0
1039	2513.0
1040	2565.0
1041	2922.0
1042	2998.0
1043	2766.0
1044	2650.0
1045	2597.0
1046	2562.0
1047	3071.0
1048	3180.0
1049	2822.0
1050	2659.0
1051	2655.0
1052	2661.0
1053	2585.0
1054	2573.0
1055	2562.0
1056	2606.0
1057	2603.0
1058	2587.0
1059	2615.0
1060	2618.0
1061	2617.0
1062	2741.0
1063	2773.0
1064	2695.0
1065	2657.0
1066	2631.0
1067	2691.0
1068	2722.0
1069	2831.0
1070	3058.0
1071	3058.0
1072	2900.0
1073	2774.0
1074	2725.0
1075	2728.0
1076	2727.0
1077	2713.0
1078	2718.0
1079	2801.0
1080	2804.0
1081	2788.0
1082	2745.0
1083	2704.0
1084	2682.0
1085	2691.0
1086	2709.0
1087	2671.0
1088	2849.0
1089	2879.0
1090	2777.0
1091	2764.0
1092	2771.0
1093	2739.0
1094	2895.0
1095	2928.0
1096	2797.0
1097	2767.0
1098	2745.0
1099	2735.0
1100	2701.0
1101	3602.0
1102	3810.0
1103	3281.0
1104	3022.0
1105	2921.0
1106	2911.0
1107	2892.0
1108	2856.0
1109	2818.0
1110	3030.0
1111	3076.0
1112	2918.0
1113	2852.0
1114	2797.0
1115	2805.0
1116	2835.0
1117	2825.0
1118	2774.0
1119	2814.0
1120	2870.0
1121	2848.0
1122	3151.0
1123	3234.0
1124	3015.0
1125	2904.0
1126	2877.0
1127	2902.0
1128	3003.0
1129	2982.0
1130	2902.0
1131	2919.0
1132	2960.0
1133	2956.0
1134	2918.0
1135	2908.0
1136	2885.0
1137	2895.0
1138	2895.0
1139	2991.0
1140	2989.0
1141	3366.0
1142	3451.0
1143	3144.0
1144	3016.0
1145	2974.0
1146	2940.0
1147	2932.0
1148	2948.0
1149	2965.0
1150	3035.0
1151	3007.0
1152	2921.0
1153	2903.0
1154	2902.0
1155	2907.0
1156	2984.0
1157	2991.0
1158	2938.0
1159	2946.0
1160	2977.0
1161	2960.0
1162	2960.0
1163	2950.0
1164	2958.0
1165	2932.0
1166	2957.0
1167	3068.0
1168	3073.0
1169	2993.0
1170	2938.0
1171	2951.0
1172	2955.0
1173	2994.0
1174	3161.0
1175	3214.0
1176	3120.0
1177	3086.0
1178	3058.0
1179	2993.0
1180	3025.0
1181	3186.0
1182	3256.0
1183	3221.0
1184	3152.0
1185	3100.0
1186	3061.0
1187	3073.0
1188	3037.0
1189	3014.0
1190	3136.0
1191	3187.0
1192	3098.0
1193	3053.0
1194	3055.0
1195	3069.0
1196	3069.0
1197	3028.0
1198	2999.0
1199	2983.0
1200	3095.0
1201	3144.0
1202	3333.0
1203	3421.0
1204	3285.0
1205	3173.0
1206	3134.0
1207	3110.0
1208	3218.0
1209	3250.0
1210	3103.0
1211	3082.0
1212	3076.0
1213	3081.0
1214	3062.0
1215	3035.0
1216	3053.0
1217	3069.0
1218	3069.0
1219	3065.0
1220	3052.0
1221	3042.0
1222	3039.0
1223	3014.0
1224	3009.0
1225	3040.0
1226	3042.0
1227	3067.0
1228	3072.0
1229	3095.0
1230	3080.0
1231	3271.0
1232	3343.0
1233	3234.0
1234	3137.0
1235	3084.0
1236	3085.0
1237	3097.0
1238	3098.0
1239	3101.0
1240	3082.0
1241	3039.0
1242	3264.0
1243	3328.0
1244	3223.0
1245	3186.0
1246	3118.0
1247	3093.0
1248	3098.0
1249	3099.0
1250	3086.0
1251	3090.0
1252	3064.0
1253	3089.0
1254	3095.0
1255	3104.0
1256	3108.0
1257	3071.0
1258	3100.0
1259	3111.0
1260	3093.0
1261	3053.0
1262	3089.0
1263	3094.0
1264	3064.0
1265	3044.0
1266	3029.0
1267	2992.0
1268	2919.0
1269	2881.0
1270	2854.0
1271	2821.0
1272	2738.0
1273	2673.0
1274	2641.0
1275	2627.0
1276	2816.0
1277	2786.0
1278	2599.0
1279	2467.0
1280	2399.0
1281	2340.0
1282	2258.0
1283	2197.0
1284	2150.0
1285	2140.0
1286	2114.0
1287	2108.0
1288	2058.0
1289	2039.0
1290	2025.0
1291	2034.0
1292	2027.0
1293	1970.0
1294	2174.0
1295	2207.0
1296	2104.0
1297	2080.0
1298	2056.0
1299	2045.0
1300	2022.0
1301	2008.0
1302	1983.0
1303	1971.0
1304	1950.0
1305	1956.0
1306	1943.0
1307	1937.0
1308	1959.0
1309	1998.0
1310	1964.0
1311	1943.0
1312	1958.0
1313	1952.0
1314	1974.0
1315	2118.0
1316	2153.0
1317	2053.0
1318	2028.0
1319	2021.0
1320	1990.0
1321	2025.0
1322	2006.0
1323	2028.0
1324	2034.0
1325	1978.0
1326	1960.0
1327	1974.0
1328	1973.0
1329	1971.0
1330	1978.0
1331	1949.0
1332	1960.0
1333	1975.0
1334	1971.0
1335	1926.0
1336	1925.0
1337	1936.0
1338	1937.0
1339	2363.0
1340	2505.0
1341	2347.0
1342	2319.0
1343	2292.0
1344	2229.0
1345	2147.0
1346	2204.0
1347	2190.0
1348	2079.0
1349	2013.0
1350	2008.0
1351	1981.0
1352	2015.0
1353	2056.0
1354	2064.0
1355	2050.0
1356	2025.0
1357	2250.0
1358	2270.0
1359	2141.0
1360	2380.0
1361	2426.0
1362	2209.0
1363	2085.0
1364	2142.0
1365	2196.0
1366	2148.0
1367	2241.0
1368	2259.0
1369	2119.0
1370	2096.0
1371	2055.0
1372	2025.0
1373	1992.0
1374	1967.0
1375	1998.0
1376	2028.0
1377	2041.0
1378	2006.0
1379	2005.0
1380	2018.0
1381	2048.0
1382	2028.0
1383	2005.0
1384	1980.0
1385	1949.0
1386	1964.0
1387	1959.0
1388	1967.0
1389	1989.0
1390	2004.0
1391	2023.0
1392	2032.0
1393	1986.0
1394	1971.0
1395	2014.0
1396	2049.0
1397	2042.0
1398	2002.0
1399	1983.0
1400	3173.0
1401	3436.0
1402	2730.0
1403	2352.0
1404	2468.0
1405	2448.0
1406	2238.0
1407	3548.0
1408	3824.0
1409	2906.0
1410	2434.0
1411	2191.0
1412	2090.0
1413	2095.0
1414	2065.0
1415	2020.0
1416	1976.0
1417	1947.0
1418	1955.0
1419	1976.0
1420	1974.0
1421	2019.0
1422	1997.0
1423	1986.0
1424	1962.0
1425	1944.0
1426	1957.0
1427	1976.0
1428	1993.0
1429	2066.0
1430	2093.0
1431	2019.0
1432	1982.0
1433	1978.0
1434	2117.0
1435	2185.0
1436	2208.0
1437	2181.0
1438	2081.0
1439	2360.0
1440	2417.0
1441	2226.0
1442	2098.0
1443	2082.0
1444	2092.0
1445	2077.0
1446	2046.0
1447	2040.0
1448	2047.0
1449	1990.0
1450	1990.0
1451	1983.0
1452	1963.0
1453	1971.0
1454	1999.0
1455	2024.0
1456	1986.0
1457	1976.0
1458	1956.0
1459	2286.0
1460	2380.0
1461	2210.0
1462	2190.0
1463	2151.0
1464	2136.0
1465	2091.0
1466	2041.0
1467	2035.0
1468	2024.0
1469	2015.0
1470	1999.0
1471	1985.0
1472	1981.0
1473	1991.0
1474	1958.0
1475	1956.0
1476	1951.0
1477	1959.0
1478	1967.0
1479	1956.0
1480	1947.0
1481	2041.0
1482	2070.0
1483	1996.0
1484	2008.0
1485	2081.0
1486	2111.0
1487	2068.0
1488	2022.0
1489	2043.0
1490	2072.0
1491	2097.0
1492	2103.0
1493	2106.0
1494	2108.0
1495	2090.0
1496	2020.0
1497	1987.0
1498	1974.0
1499	1968.0
1500	1957.0
1501	1936.0
1502	2143.0
1503	2221.0
1504	2120.0
1505	2080.0
1506	2299.0
1507	2382.0
1508	2583.0
1509	2537.0
1510	2257.0
1511	2132.0
1512	2258.0
1513	2280.0
1514	2125.0
1515	2043.0
1516	2000.0
1517	2027.0
1518	2011.0
1519	1947.0
1520	1974.0
1521	1998.0
1522	2039.0
1523	2034.0
1524	2018.0
1525	1983.0
1526	1975.0
1527	1973.0
1528	1936.0
1529	1953.0
1530	1957.0
1531	1963.0
1532	2138.0
1533	2189.0
1534	2097.0
1535	2064.0
1536	2033.0
1537	2027.0
1538	2011.0
1539	1973.0
1540	1984.0
1541	2028.0
1542	2042.0
1543	2006.0
1544	2023.0
1545	2015.0
1546	1956.0
1547	1967.0
1548	1990.0
1549	2008.0
1550	1980.0
1551	2006.0
1552	2042.0
1553	2050.0
1554	2023.0
1555	1973.0
1556	1985.0
1557	1976.0
1558	2020.0
1559	2036.0
1560	2014.0
1561	1989.0
1562	1988.0
1563	1978.0
1564	1930.0
1565	1926.0
1566	1934.0
1567	1948.0
1568	1941.0
1569	1941.0
1570	1995.0
1571	2084.0
1572	2061.0
1573	2004.0
1574	1985.0
1575	1958.0
1576	1945.0
1577	2233.0
1578	2380.0
1579	2215.0
1580	2093.0
1581	2019.0
1582	1960.0
1583	1961.0
1584	2005.0
1585	2029.0
1586	2008.0
1587	2024.0
1588	1996.0
1589	1980.0
1590	1995.0
1591	2001.0
1592	2313.0
1593	2400.0
1594	2352.0
1595	2258.0
1596	2140.0
1597	2093.0
1598	2050.0
1599	1981.0
1600	1998.0
1601	1989.0
1602	1994.0
1603	1986.0
1604	1962.0
1605	1972.0
1606	2022.0
1607	2036.0
1608	1985.0
1609	2037.0
1610	2022.0
1611	2028.0
1612	2008.0
1613	1953.0
1614	1962.0
1615	1951.0
1616	2175.0
1617	2248.0
1618	2160.0
1619	2138.0
1620	2114.0
1621	2039.0
1622	1954.0
1623	1939.0
1624	1978.0
1625	1993.0
1626	1976.0
1627	1973.0
1628	1973.0
1629	1976.0
1630	1969.0
1631	1991.0
1632	2045.0
1633	2037.0
1634	2044.0
1635	2022.0
1636	2008.0
1637	1970.0
1638	2002.0
1639	2032.0
1640	2026.0
1641	2023.0
1642	2008.0
1643	2016.0
1644	1993.0
1645	1982.0
1646	1998.0
1647	2004.0
1648	1996.0
1649	1976.0
1650	1956.0
1651	1958.0
1652	1975.0
1653	1981.0
1654	1981.0
1655	1964.0
1656	2000.0
1657	2003.0
1658	1988.0
1659	1983.0
1660	2011.0
1661	2021.0
1662	2000.0
1663	2009.0
1664	2052.0
1665	2022.0
1666	1988.0
1667	2014.0
1668	2021.0
1669	1983.0
1670	1983.0
1671	1968.0
1672	2014.0
1673	2033.0
1674	2029.0
1675	2062.0
1676	2048.0
1677	2008.0
1678	1986.0
1679	1992.0
1680	1957.0
1681	1984.0
1682	2001.0
1683	1999.0
1684	1957.0
1685	1940.0
1686	1924.0
1687	1983.0
1688	2026.0
1689	1966.0
1690	1950.0
1691	1939.0
1692	2245.0
1693	2315.0
1694	2178.0
1695	2113.0
1696	2044.0
1697	1979.0
1698	1945.0
1699	1971.0
1700	1975.0
1701	1968.0
1702	1968.0
1703	1963.0
1704	1955.0
1705	2171.0
1706	2230.0
1707	2093.0
1708	2030.0
1709	1979.0
1710	1967.0
1711	1945.0
1712	1982.0
1713	1967.0
1714	1938.0
1715	2013.0
1716	2006.0
1717	2314.0
1718	2362.0
1719	2193.0
1720	2116.0
1721	2077.0
1722	2066.0
1723	2342.0
1724	2374.0
1725	2177.0
1726	2112.0
1727	2060.0
1728	2052.0
1729	2015.0
1730	2009.0
1731	2310.0
1732	2378.0
1733	2340.0
1734	2255.0
1735	2133.0
1736	2132.0
1737	2138.0
1738	2066.0
1739	2037.0
1740	1992.0
1741	1988.0
1742	1991.0
1743	1963.0
1744	1987.0
1745	1968.0
1746	1983.0
1747	1974.0
1748	1969.0
1749	1946.0
1750	1944.0
1751	1979.0
1752	2194.0
1753	2245.0
1754	2172.0
1755	2254.0
1756	2210.0
1757	2094.0
1758	2003.0
1759	2046.0
1760	2074.0
1761	2029.0
1762	2014.0
1763	1986.0
1764	1972.0
1765	1959.0
1766	2025.0
1767	2182.0
1768	2194.0
1769	2088.0
1770	2013.0
1771	1980.0
1772	1970.0
1773	1965.0
1774	1942.0
1775	1962.0
1776	1994.0
1777	1998.0
1778	2093.0
1779	2125.0
1780	2061.0
1781	2029.0
1782	2007.0
1783	1990.0
1784	2024.0
1785	2024.0
1786	2016.0
1787	1983.0
1788	1983.0
1789	1946.0
1790	1973.0
1791	1991.0
1792	1996.0
1793	2016.0
1794	1972.0
1795	1957.0
1796	1961.0
1797	1947.0
1798	1940.0
1799	1956.0
1800	1958.0
1801	1943.0
1802	1963.0
1803	1965.0
1804	1978.0
1805	1972.0
1806	1971.0
1807	1989.0
1808	2016.0
1809	2020.0
1810	2005.0
1811	1998.0
1812	2014.0
1813	2024.0
1814	1993.0
1815	1987.0
1816	1958.0
1817	1972.0
1818	2003.0
1819	2013.0
1820	2103.0
1821	2095.0
1822	2061.0
1823	2056.0
1824	2055.0
1825	2022.0
1826	1994.0
1827	2039.0
1828	2052.0
1829	2027.0
1830	2046.0
1831	2062.0
1832	2014.0
1833	2003.0
1834	2057.0
1835	2075.0
1836	2035.0
1837	2025.0
1838	2015.0
1839	1995.0
1840	2003.0
1841	1974.0
1842	1979.0
1843	1968.0
1844	2223.0
1845	2293.0
1846	2154.0
1847	2050.0
1848	2064.0
1849	2093.0
1850	2061.0
1851	2055.0
1852	2000.0
1853	1980.0
1854	2024.0
1855	2030.0
1856	1994.0
1857	1994.0
1858	2037.0
1859	2022.0
1860	2020.0
1861	2001.0
1862	1988.0
1863	1969.0
1864	1999.0
1865	2019.0
1866	2003.0
1867	1994.0
1868	1959.0
1869	2232.0
1870	2322.0
1871	2152.0
1872	2029.0
1873	1997.0
1874	1977.0
1875	1974.0
1876	1978.0
1877	1944.0
1878	1941.0
1879	1912.0
1880	1986.0
1881	1991.0
1882	1972.0
1883	1955.0
1884	1941.0
1885	1948.0
1886	1943.0
1887	1961.0
1888	2020.0
1889	2025.0
1890	2191.0
1891	2258.0
1892	2120.0
1893	2055.0
1894	2052.0
1895	2047.0
1896	2051.0
1897	2050.0
1898	2042.0
1899	2016.0
1900	3583.0
1901	3948.0
1902	3031.0
1903	2643.0
1904	2381.0
1905	2180.0
1906	2196.0
1907	2363.0
1908	2306.0
1909	2314.0
1910	2231.0
1911	2106.0
1912	2303.0
1913	2284.0
1914	2110.0
1915	2045.0
1916	2020.0
1917	2001.0
1918	2016.0
1919	2000.0
1920	1986.0
1921	1954.0
1922	1951.0
1923	2005.0
1924	1989.0
1925	1968.0
1926	1943.0
1927	2020.0
1928	2032.0
1929	2034.0
1930	2008.0
1931	1998.0
1932	2014.0
1933	2038.0
1934	2019.0
1935	2009.0
1936	2295.0
1937	2346.0
1938	2173.0
1939	2055.0
1940	2020.0
1941	2004.0
1942	2011.0
1943	2013.0
1944	1987.0
1945	1983.0
1946	2061.0
1947	2099.0
1948	2055.0
1949	2027.0
1950	2008.0
1951	2024.0
1952	2029.0
1953	2090.0
1954	2102.0
1955	2147.0
1956	2124.0
1957	2020.0
1958	2032.0
1959	2019.0
1960	2010.0
1961	2026.0
1962	2019.0
1963	2018.0
1964	2038.0
1965	2030.0
1966	1986.0
1967	1990.0
1968	2001.0
1969	2024.0
1970	2019.0
1971	1960.0
1972	1983.0
1973	1999.0
1974	2006.0
1975	1969.0
1976	2072.0
1977	2112.0
1978	2043.0
1979	2012.0
1980	1997.0
1981	1956.0
1982	1919.0
1983	1947.0
1984	1993.0
1985	2012.0
1986	1952.0
1987	1954.0
1988	1956.0
1989	1950.0
1990	1974.0
1991	2020.0
1992	2026.0
1993	2100.0
1994	2118.0
1995	2012.0
1996	1995.0
1997	2004.0
1998	1987.0
1999	1980.0
2000	1954.0
2001	1971.0
2002	2155.0
2003	2189.0
2004	2059.0
2005	2017.0
2006	2016.0
2007	1996.0
2008	1970.0
2009	1957.0
2010	1990.0
2011	1969.0
2012	1953.0
2013	1955.0
2014	1955.0
2015	1998.0
2016	1993.0
2017	2016.0
2018	2034.0
2019	2025.0
2020	1940.0
2021	1932.0
2022	2025.0
2023	2043.0
2024	2019.0
2025	2004.0
2026	2865.0
2027	3500.0
2028	3066.0
2029	2786.0
2030	2592.0
2031	2300.0
2032	2159.0
2033	2505.0
2034	2543.0
2035	2235.0
2036	2096.0
2037	2060.0
2038	2289.0
2039	2361.0
2040	2248.0
2041	2154.0
2042	2095.0
2043	2101.0
2044	2044.0
2045	2051.0
2046	2063.0
2047	2023.0
