================================================================================
RAMAN SPECTROMETER DEBUG LOG
Timestamp: 2026-01-19T15:52:02.526176
================================================================================

--- CONFIGURATION ---
Port: /dev/ttyUSB0
Baudrate: 9600
Integration time: 200 ms
Timeout: 10.0 s
Expected data points: 2048
Min data points: 2048

--- RAW DATA INFO ---
Total bytes received: 14370
Null bytes count: 1

--- RAW BYTES (first 500, hex) ---
61 0d 0a 41 43 4b 0d 0a 0d 0a 49 32 30 30 0d 0a 
41 43 4b 0d 0a 0d 0a 53 0d 0a 41 43 4b 0d 0a 30 
31 38 34 36 0d 0a 30 31 38 38 34 0d 0a 30 31 38 
35 39 0d 0a 30 31 37 39 39 0d 0a 30 31 38 30 33 
0d 0a 30 31 38 32 32 0d 0a 30 31 38 31 39 0d 0a 
30 31 38 30 35 0d 0a 30 31 37 39 30 0d 0a 30 31 
38 33 31 0d 0a 30 31 38 34 34 0d 0a 30 31 38 34 
31 0d 0a 30 31 38 34 34 0d 0a 30 31 38 34 35 0d 
0a 30 31 38 33 30 0d 0a 30 31 39 30 32 0d 0a 30 
31 39 34 37 0d 0a 30 31 38 39 32 0d 0a 30 31 38 
37 36 0d 0a 30 31 38 37 32 0d 0a 30 31 38 38 35 
0d 0a 30 31 38 36 38 0d 0a 30 31 38 39 30 0d 0a 
30 31 38 39 36 0d 0a 30 31 38 37 30 0d 0a 30 31 
38 36 34 0d 0a 30 31 38 36 33 0d 0a 30 31 38 39 
37 0d 0a 30 31 38 38 30 0d 0a 30 31 38 36 36 0d 
0a 30 31 39 36 33 0d 0a 30 31 39 38 38 0d 0a 30 
31 39 34 37 0d 0a 30 31 39 30 37 0d 0a 30 31 38 
38 31 0d 0a 30 31 38 35 37 0d 0a 30 31 38 34 33 
0d 0a 30 31 38 33 37 0d 0a 30 31 38 34 33 0d 0a 
30 31 38 33 39 0d 0a 30 31 38 35 32 0d 0a 30 31 
38 36 30 0d 0a 30 31 38 35 39 0d 0a 30 31 38 37 
37 0d 0a 30 31 39 39 36 0d 0a 30 32 30 34 34 0d 
0a 30 31 39 34 36 0d 0a 30 31 38 39 38 0d 0a 30 
31 38 37 31 0d 0a 30 31 38 36 30 0d 0a 30 31 38 
34 31 0d 0a 30 31 38 34 35 0d 0a 30 31 38 33 31 
0d 0a 30 31 38 32 35 0d 0a 30 31 38 34 31 0d 0a 
30 31 38 33 39 0d 0a 30 31 38 34 33 0d 0a 30 31 
38 39 39 0d 0a 30 31 39 30 38 0d 0a 30 31 38 38 
34 0d 0a 30 31 38 36 36 0d 0a 30 31 38 36 30 0d 
0a 30 31 38 33 34 0d 0a 30 31 38 32 38 0d 0a 30 
31 38 30 39 0d 0a 30 31 38 33 38 0d 0a 30 31 39 
31 36 0d 0a

--- RAW DATA AS STRING (first 1000 chars) ---
a
ACK

I200
ACK

S
ACK
01846
01884
01859
01799
01803
01822
01819
01805
01790
01831
01844
01841
01844
01845
01830
01902
01947
01892
01876
01872
01885
01868
01890
01896
01870
01864
01863
01897
01880
01866
01963
01988
01947
01907
01881
01857
01843
01837
01843
01839
01852
01860
01859
01877
01996
02044
01946
01898
01871
01860
01841
01845
01831
01825
01841
01839
01843
01899
01908
01884
01866
01860
01834
01828
01809
01838
01916
01939
01888
01890
01908
01882
01866
01863
01890
01888
01863
01828
01833
01861
01826
01832
01834
01854
02692
02888
02393
02102
01962
01886
01874
01900
01995
01971
01895
01861
01834
01846
01814
01836
01875
01900
01899
01882
01860
01851
01818
01779
01830
01849
01837
01796
01796
01806
01836
01861
01856
01863
01868
01902
01888
01875
01879
01887
01834
01773
01812
01827
01843
01811
01821
01820
01823
01871
01871
01858
01858
01876
018

--- PARSED VALUES ---
Total parsed values: 2048
Min value: 1767.0
Max value: 2888.0
Mean value: 1906.853
Saturated values (>=65535): 0
First 20 values: [1846.0, 1884.0, 1859.0, 1799.0, 1803.0, 1822.0, 1819.0, 1805.0, 1790.0, 1831.0, 1844.0, 1841.0, 1844.0, 1845.0, 1830.0, 1902.0, 1947.0, 1892.0, 1876.0, 1872.0]
Last 20 values: [2329.0, 2216.0, 2121.0, 1984.0, 1924.0, 2053.0, 2082.0, 1955.0, 1907.0, 1892.0, 1946.0, 1980.0, 1933.0, 1892.0, 1864.0, 1863.0, 1873.0, 1867.0, 1892.0, 1876.0]

--- FULL SPECTRUM DATA (one value per line) ---
0	1846.0
1	1884.0
2	1859.0
3	1799.0
4	1803.0
5	1822.0
6	1819.0
7	1805.0
8	1790.0
9	1831.0
10	1844.0
11	1841.0
12	1844.0
13	1845.0
14	1830.0
15	1902.0
16	1947.0
17	1892.0
18	1876.0
19	1872.0
20	1885.0
21	1868.0
22	1890.0
23	1896.0
24	1870.0
25	1864.0
26	1863.0
27	1897.0
28	1880.0
29	1866.0
30	1963.0
31	1988.0
32	1947.0
33	1907.0
34	1881.0
35	1857.0
36	1843.0
37	1837.0
38	1843.0
39	1839.0
40	1852.0
41	1860.0
42	1859.0
43	1877.0
44	1996.0
45	2044.0
46	1946.0
47	1898.0
48	1871.0
49	1860.0
50	1841.0
51	1845.0
52	1831.0
53	1825.0
54	1841.0
55	1839.0
56	1843.0
57	1899.0
58	1908.0
59	1884.0
60	1866.0
61	1860.0
62	1834.0
63	1828.0
64	1809.0
65	1838.0
66	1916.0
67	1939.0
68	1888.0
69	1890.0
70	1908.0
71	1882.0
72	1866.0
73	1863.0
74	1890.0
75	1888.0
76	1863.0
77	1828.0
78	1833.0
79	1861.0
80	1826.0
81	1832.0
82	1834.0
83	1854.0
84	2692.0
85	2888.0
86	2393.0
87	2102.0
88	1962.0
89	1886.0
90	1874.0
91	1900.0
92	1995.0
93	1971.0
94	1895.0
95	1861.0
96	1834.0
97	1846.0
98	1814.0
99	1836.0
100	1875.0
101	1900.0
102	1899.0
103	1882.0
104	1860.0
105	1851.0
106	1818.0
107	1779.0
108	1830.0
109	1849.0
110	1837.0
111	1796.0
112	1796.0
113	1806.0
114	1836.0
115	1861.0
116	1856.0
117	1863.0
118	1868.0
119	1902.0
120	1888.0
121	1875.0
122	1879.0
123	1887.0
124	1834.0
125	1773.0
126	1812.0
127	1827.0
128	1843.0
129	1811.0
130	1821.0
131	1820.0
132	1823.0
133	1871.0
134	1871.0
135	1858.0
136	1858.0
137	1876.0
138	1834.0
139	1828.0
140	1821.0
141	2130.0
142	2204.0
143	1995.0
144	1910.0
145	1851.0
146	1891.0
147	1874.0
148	1918.0
149	1929.0
150	1907.0
151	1864.0
152	1834.0
153	1852.0
154	1851.0
155	1877.0
156	1871.0
157	1844.0
158	1863.0
159	1861.0
160	1837.0
161	1777.0
162	1873.0
163	1887.0
164	1861.0
165	1828.0
166	1838.0
167	1855.0
168	1858.0
169	1843.0
170	1823.0
171	1841.0
172	1824.0
173	1794.0
174	1783.0
175	1810.0
176	1809.0
177	1800.0
178	1808.0
179	1798.0
180	1836.0
181	1845.0
182	1840.0
183	1845.0
184	1869.0
185	1859.0
186	1843.0
187	1848.0
188	1826.0
189	1906.0
190	1927.0
191	1907.0
192	1878.0
193	1843.0
194	1863.0
195	1880.0
196	1878.0
197	1860.0
198	1863.0
199	1863.0
200	1887.0
201	1869.0
202	1860.0
203	1853.0
204	1855.0
205	1848.0
206	1829.0
207	1842.0
208	1845.0
209	1857.0
210	1840.0
211	1846.0
212	1855.0
213	1919.0
214	2058.0
215	2054.0
216	2008.0
217	1942.0
218	1895.0
219	1846.0
220	1855.0
221	1830.0
222	1828.0
223	1826.0
224	1825.0
225	1843.0
226	1853.0
227	1890.0
228	1902.0
229	1904.0
230	1879.0
231	1869.0
232	1841.0
233	1975.0
234	2016.0
235	1927.0
236	1880.0
237	1848.0
238	1864.0
239	1862.0
240	1855.0
241	2086.0
242	2174.0
243	2112.0
244	2056.0
245	1972.0
246	1923.0
247	2036.0
248	2013.0
249	1929.0
250	1900.0
251	1900.0
252	1902.0
253	1918.0
254	1917.0
255	1896.0
256	1901.0
257	1849.0
258	1826.0
259	1810.0
260	1838.0
261	1836.0
262	1840.0
263	1850.0
264	1851.0
265	2037.0
266	2058.0
267	1954.0
268	1929.0
269	1930.0
270	1884.0
271	1861.0
272	1873.0
273	1865.0
274	1878.0
275	1862.0
276	1892.0
277	1882.0
278	1871.0
279	1854.0
280	1843.0
281	1842.0
282	1856.0
283	1862.0
284	1871.0
285	1876.0
286	1861.0
287	1873.0
288	1871.0
289	1842.0
290	1814.0
291	1818.0
292	1820.0
293	1823.0
294	1839.0
295	1830.0
296	1857.0
297	1828.0
298	1812.0
299	1850.0
300	1847.0
301	1841.0
302	1834.0
303	1853.0
304	1855.0
305	1845.0
306	1835.0
307	1827.0
308	1828.0
309	1922.0
310	1994.0
311	1964.0
312	1936.0
313	1902.0
314	1967.0
315	1945.0
316	1916.0
317	1900.0
318	1856.0
319	1832.0
320	1811.0
321	1847.0
322	1830.0
323	1795.0
324	1786.0
325	1819.0
326	1829.0
327	1805.0
328	1813.0
329	1924.0
330	1975.0
331	2001.0
332	1994.0
333	1931.0
334	1924.0
335	1973.0
336	1962.0
337	1899.0
338	1855.0
339	1856.0
340	1839.0
341	1869.0
342	1879.0
343	1867.0
344	1855.0
345	1838.0
346	1867.0
347	1882.0
348	1872.0
349	1862.0
350	1889.0
351	1875.0
352	1876.0
353	1854.0
354	1810.0
355	1816.0
356	1861.0
357	1886.0
358	1863.0
359	1844.0
360	1821.0
361	1855.0
362	1850.0
363	1848.0
364	1868.0
365	1873.0
366	1868.0
367	1848.0
368	1865.0
369	1878.0
370	1873.0
371	1884.0
372	1880.0
373	1856.0
374	1837.0
375	1858.0
376	1867.0
377	1915.0
378	1903.0
379	1883.0
380	1909.0
381	1931.0
382	1910.0
383	1894.0
384	1881.0
385	1843.0
386	1850.0
387	1866.0
388	1880.0
389	1892.0
390	1865.0
391	1946.0
392	1975.0
393	1916.0
394	1852.0
395	1860.0
396	1871.0
397	1886.0
398	1878.0
399	1885.0
400	1857.0
401	1826.0
402	1820.0
403	1812.0
404	1910.0
405	1922.0
406	1880.0
407	1844.0
408	1834.0
409	1852.0
410	1847.0
411	1854.0
412	1860.0
413	1840.0
414	1826.0
415	1839.0
416	1817.0
417	1798.0
418	1792.0
419	1881.0
420	1900.0
421	1866.0
422	1943.0
423	1938.0
424	1892.0
425	1884.0
426	1861.0
427	1807.0
428	1832.0
429	1881.0
430	1850.0
431	1844.0
432	1876.0
433	1910.0
434	1866.0
435	1845.0
436	1887.0
437	1913.0
438	1877.0
439	1861.0
440	2022.0
441	2035.0
442	1932.0
443	1897.0
444	1870.0
445	1954.0
446	1981.0
447	1919.0
448	1879.0
449	1866.0
450	1840.0
451	1818.0
452	1806.0
453	1826.0
454	1823.0
455	1845.0
456	1853.0
457	1824.0
458	1826.0
459	1861.0
460	1893.0
461	1894.0
462	1894.0
463	1876.0
464	1847.0
465	1850.0
466	1837.0
467	1837.0
468	1824.0
469	1818.0
470	1812.0
471	1836.0
472	1845.0
473	1854.0
474	1931.0
475	1930.0
476	1881.0
477	1864.0
478	1919.0
479	1953.0
480	1939.0
481	1890.0
482	1852.0
483	1845.0
484	1837.0
485	1850.0
486	1862.0
487	1876.0
488	1853.0
489	1842.0
490	1843.0
491	1871.0
492	1882.0
493	1859.0
494	1897.0
495	1884.0
496	1880.0
497	1840.0
498	1828.0
499	1814.0
500	1788.0
501	1777.0
502	1785.0
503	1785.0
504	1812.0
505	1856.0
506	1837.0
507	1844.0
508	1823.0
509	1818.0
510	1830.0
511	1841.0
512	1871.0
513	1861.0
514	1858.0
515	1854.0
516	1836.0
517	1846.0
518	1969.0
519	1987.0
520	1894.0
521	1859.0
522	1832.0
523	1851.0
524	1845.0
525	1861.0
526	1867.0
527	1865.0
528	1856.0
529	1856.0
530	1873.0
531	1852.0
532	1837.0
533	1821.0
534	1831.0
535	1830.0
536	1836.0
537	1827.0
538	1795.0
539	1807.0
540	1843.0
541	1869.0
542	1857.0
543	1865.0
544	1848.0
545	1861.0
546	1844.0
547	1807.0
548	1821.0
549	1829.0
550	1871.0
551	1848.0
552	1822.0
553	1852.0
554	1858.0
555	1831.0
556	1790.0
557	1801.0
558	1820.0
559	1830.0
560	1829.0
561	1840.0
562	1853.0
563	1850.0
564	1838.0
565	1825.0
566	1854.0
567	1884.0
568	1882.0
569	1874.0
570	1850.0
571	1809.0
572	1802.0
573	1815.0
574	1819.0
575	1841.0
576	1864.0
577	1845.0
578	1820.0
579	1819.0
580	1832.0
581	1823.0
582	1807.0
583	1821.0
584	1829.0
585	1841.0
586	1870.0
587	1892.0
588	1912.0
589	1885.0
590	1848.0
591	1867.0
592	1864.0
593	1839.0
594	1829.0
595	1826.0
596	1923.0
597	2011.0
598	1959.0
599	1892.0
600	1861.0
601	1882.0
602	1877.0
603	1861.0
604	1870.0
605	1900.0
606	1896.0
607	1858.0
608	1856.0
609	1981.0
610	2006.0
611	1894.0
612	1839.0
613	1823.0
614	1824.0
615	1834.0
616	1853.0
617	1867.0
618	1862.0
619	1844.0
620	1819.0
621	1837.0
622	1856.0
623	1823.0
624	1867.0
625	1894.0
626	1896.0
627	1854.0
628	1886.0
629	1876.0
630	1873.0
631	1897.0
632	1887.0
633	1843.0
634	1824.0
635	1837.0
636	1807.0
637	1800.0
638	2227.0
639	2334.0
640	2108.0
641	1993.0
642	1922.0
643	1949.0
644	1998.0
645	1947.0
646	1910.0
647	1858.0
648	1848.0
649	1853.0
650	1853.0
651	1850.0
652	1844.0
653	1856.0
654	1877.0
655	1899.0
656	1861.0
657	1845.0
658	1844.0
659	1858.0
660	1847.0
661	1809.0
662	1876.0
663	1887.0
664	1853.0
665	1845.0
666	1855.0
667	1872.0
668	1836.0
669	1816.0
670	1814.0
671	1821.0
672	1817.0
673	1832.0
674	1828.0
675	1842.0
676	1842.0
677	1846.0
678	1853.0
679	1852.0
680	1887.0
681	1882.0
682	1871.0
683	1864.0
684	1851.0
685	1824.0
686	1816.0
687	1861.0
688	2002.0
689	2038.0
690	1938.0
691	1903.0
692	1887.0
693	1941.0
694	1913.0
695	1875.0
696	1868.0
697	1846.0
698	1864.0
699	1871.0
700	1851.0
701	1854.0
702	1844.0
703	1824.0
704	1839.0
705	1847.0
706	1846.0
707	1840.0
708	1849.0
709	1869.0
710	1922.0
711	1935.0
712	1901.0
713	1872.0
714	1856.0
715	1836.0
716	1849.0
717	1927.0
718	1955.0
719	1929.0
720	1921.0
721	1878.0
722	1858.0
723	1862.0
724	1855.0
725	1937.0
726	1941.0
727	1915.0
728	1874.0
729	1867.0
730	1890.0
731	1888.0
732	1858.0
733	1845.0
734	1919.0
735	1940.0
736	2069.0
737	2078.0
738	1981.0
739	1914.0
740	1858.0
741	1833.0
742	1840.0
743	1869.0
744	1840.0
745	1855.0
746	1841.0
747	1934.0
748	1948.0
749	1902.0
750	1868.0
751	1864.0
752	1899.0
753	1890.0
754	1885.0
755	1884.0
756	1874.0
757	1960.0
758	1967.0
759	1897.0
760	1869.0
761	1881.0
762	1890.0
763	1908.0
764	1887.0
765	1872.0
766	1857.0
767	1851.0
768	1821.0
769	1819.0
770	1814.0
771	1801.0
772	1810.0
773	1812.0
774	1839.0
775	1837.0
776	1819.0
777	1820.0
778	1803.0
779	1804.0
780	1806.0
781	1838.0
782	1828.0
783	1820.0
784	1822.0
785	1821.0
786	1810.0
787	1841.0
788	1879.0
789	1836.0
790	1823.0
791	1828.0
792	1859.0
793	1832.0
794	1834.0
795	1839.0
796	1829.0
797	1844.0
798	1810.0
799	1850.0
800	1875.0
801	1865.0
802	1838.0
803	1854.0
804	1869.0
805	1852.0
806	1861.0
807	1825.0
808	1837.0
809	1854.0
810	1857.0
811	1844.0
812	1887.0
813	1898.0
814	1864.0
815	1840.0
816	1805.0
817	1838.0
818	1830.0
819	1837.0
820	1870.0
821	1882.0
822	1895.0
823	1884.0
824	1867.0
825	1843.0
826	1840.0
827	1884.0
828	1875.0
829	1838.0
830	1844.0
831	1822.0
832	1810.0
833	1830.0
834	1823.0
835	1839.0
836	1838.0
837	1849.0
838	1820.0
839	1807.0
840	1825.0
841	1848.0
842	1851.0
843	1830.0
844	1855.0
845	1855.0
846	1842.0
847	1804.0
848	1835.0
849	1862.0
850	1876.0
851	1857.0
852	1926.0
853	1952.0
854	1866.0
855	2161.0
856	2240.0
857	2071.0
858	1976.0
859	1932.0
860	1913.0
861	1866.0
862	1886.0
863	1879.0
864	1888.0
865	1870.0
866	1862.0
867	1844.0
868	1828.0
869	1828.0
870	1823.0
871	1848.0
872	1861.0
873	1842.0
874	1836.0
875	1860.0
876	1863.0
877	1840.0
878	1834.0
879	1805.0
880	1822.0
881	1818.0
882	1827.0
883	1809.0
884	1801.0
885	1786.0
886	1812.0
887	1823.0
888	1841.0
889	1849.0
890	1835.0
891	1844.0
892	1816.0
893	1806.0
894	1808.0
895	1837.0
896	1855.0
897	1881.0
898	1873.0
899	1885.0
900	1898.0
901	1850.0
902	1842.0
903	1890.0
904	1911.0
905	1853.0
906	1859.0
907	1870.0
908	1956.0
909	1949.0
910	1851.0
911	1833.0
912	1843.0
913	1851.0
914	1836.0
915	1831.0
916	1864.0
917	2157.0
918	2230.0
919	2052.0
920	1959.0
921	1901.0
922	1866.0
923	1834.0
924	1812.0
925	1785.0
926	1816.0
927	1817.0
928	1806.0
929	1814.0
930	1815.0
931	1844.0
932	1840.0
933	1817.0
934	1832.0
935	1877.0
936	1874.0
937	1848.0
938	1898.0
939	1913.0
940	1889.0
941	1845.0
942	1838.0
943	1807.0
944	1808.0
945	1831.0
946	1834.0
947	1841.0
948	1846.0
949	1845.0
950	1823.0
951	1842.0
952	1826.0
953	1838.0
954	1815.0
955	1817.0
956	1864.0
957	1866.0
958	1854.0
959	1818.0
960	1842.0
961	1835.0
962	1874.0
963	1894.0
964	1872.0
965	1858.0
966	1850.0
967	1841.0
968	1803.0
969	1823.0
970	1818.0
971	1837.0
972	1841.0
973	1825.0
974	1847.0
975	1853.0
976	1855.0
977	1824.0
978	1844.0
979	1878.0
980	1890.0
981	1872.0
982	1860.0
983	2177.0
984	2215.0
985	2033.0
986	1944.0
987	1911.0
988	1880.0
989	1861.0
990	1862.0
991	1892.0
992	1913.0
993	1886.0
994	1874.0
995	1948.0
996	1956.0
997	1901.0
998	1911.0
999	1889.0
1000	1848.0
1001	1854.0
1002	1865.0
1003	1873.0
1004	1858.0
1005	1887.0
1006	1914.0
1007	1919.0
1008	1914.0
1009	1917.0
1010	1929.0
1011	1925.0
1012	1926.0
1013	1931.0
1014	1941.0
1015	1948.0
1016	1962.0
1017	1954.0
1018	1928.0
1019	1927.0
1020	1933.0
1021	1954.0
1022	1926.0
1023	1948.0
1024	1963.0
1025	1971.0
1026	1967.0
1027	1964.0
1028	1975.0
1029	2014.0
1030	2016.0
1031	1992.0
1032	1985.0
1033	1982.0
1034	2009.0
1035	2015.0
1036	1987.0
1037	1981.0
1038	1995.0
1039	2026.0
1040	2013.0
1041	2136.0
1042	2141.0
1043	2093.0
1044	2061.0
1045	2032.0
1046	2022.0
1047	2211.0
1048	2273.0
1049	2135.0
1050	2069.0
1051	2072.0
1052	2085.0
1053	2047.0
1054	2033.0
1055	2045.0
1056	2071.0
1057	2077.0
1058	2048.0
1059	2077.0
1060	2055.0
1061	2032.0
1062	2064.0
1063	2075.0
1064	2048.0
1065	2051.0
1066	2051.0
1067	2037.0
1068	2077.0
1069	2138.0
1070	2249.0
1071	2234.0
1072	2152.0
1073	2124.0
1074	2120.0
1075	2126.0
1076	2093.0
1077	2077.0
1078	2074.0
1079	2106.0
1080	2081.0
1081	2054.0
1082	2068.0
1083	2089.0
1084	2109.0
1085	2068.0
1086	2046.0
1087	2010.0
1088	2082.0
1089	2118.0
1090	2100.0
1091	2104.0
1092	2110.0
1093	2114.0
1094	2162.0
1095	2182.0
1096	2126.0
1097	2089.0
1098	2053.0
1099	2064.0
1100	2079.0
1101	2447.0
1102	2531.0
1103	2307.0
1104	2221.0
1105	2164.0
1106	2159.0
1107	2122.0
1108	2106.0
1109	2119.0
1110	2199.0
1111	2216.0
1112	2148.0
1113	2122.0
1114	2108.0
1115	2124.0
1116	2088.0
1117	2090.0
1118	2079.0
1119	2076.0
1120	2102.0
1121	2083.0
1122	2200.0
1123	2235.0
1124	2194.0
1125	2161.0
1126	2151.0
1127	2155.0
1128	2189.0
1129	2179.0
1130	2125.0
1131	2116.0
1132	2093.0
1133	2083.0
1134	2080.0
1135	2087.0
1136	2077.0
1137	2110.0
1138	2115.0
1139	2095.0
1140	2122.0
1141	2276.0
1142	2310.0
1143	2198.0
1144	2164.0
1145	2145.0
1146	2184.0
1147	2218.0
1148	2184.0
1149	2163.0
1150	2172.0
1151	2163.0
1152	2120.0
1153	2122.0
1154	2142.0
1155	2168.0
1156	2204.0
1157	2176.0
1158	2186.0
1159	2153.0
1160	2139.0
1161	2135.0
1162	2152.0
1163	2137.0
1164	2142.0
1165	2132.0
1166	2136.0
1167	2200.0
1168	2182.0
1169	2170.0
1170	2161.0
1171	2162.0
1172	2165.0
1173	2175.0
1174	2275.0
1175	2280.0
1176	2221.0
1177	2186.0
1178	2214.0
1179	2189.0
1180	2172.0
1181	2231.0
1182	2263.0
1183	2279.0
1184	2240.0
1185	2236.0
1186	2232.0
1187	2244.0
1188	2210.0
1189	2172.0
1190	2208.0
1191	2216.0
1192	2202.0
1193	2196.0
1194	2212.0
1195	2180.0
1196	2230.0
1197	2236.0
1198	2218.0
1199	2203.0
1200	2214.0
1201	2206.0
1202	2266.0
1203	2284.0
1204	2220.0
1205	2179.0
1206	2165.0
1207	2159.0
1208	2186.0
1209	2198.0
1210	2173.0
1211	2164.0
1212	2179.0
1213	2181.0
1214	2181.0
1215	2172.0
1216	2164.0
1217	2156.0
1218	2166.0
1219	2168.0
1220	2165.0
1221	2179.0
1222	2191.0
1223	2200.0
1224	2198.0
1225	2223.0
1226	2225.0
1227	2196.0
1228	2167.0
1229	2203.0
1230	2217.0
1231	2260.0
1232	2300.0
1233	2250.0
1234	2221.0
1235	2203.0
1236	2202.0
1237	2204.0
1238	2201.0
1239	2203.0
1240	2229.0
1241	2240.0
1242	2280.0
1243	2281.0
1244	2227.0
1245	2211.0
1246	2190.0
1247	2204.0
1248	2186.0
1249	2170.0
1250	2178.0
1251	2172.0
1252	2150.0
1253	2163.0
1254	2182.0
1255	2173.0
1256	2190.0
1257	2172.0
1258	2196.0
1259	2214.0
1260	2199.0
1261	2194.0
1262	2192.0
1263	2174.0
1264	2161.0
1265	2163.0
1266	2154.0
1267	2160.0
1268	2153.0
1269	2124.0
1270	2109.0
1271	2115.0
1272	2107.0
1273	2068.0
1274	2047.0
1275	2016.0
1276	2099.0
1277	2113.0
1278	2042.0
1279	1965.0
1280	1906.0
1281	1907.0
1282	1909.0
1283	1912.0
1284	1873.0
1285	1861.0
1286	1855.0
1287	1845.0
1288	1853.0
1289	1877.0
1290	1891.0
1291	1864.0
1292	1848.0
1293	1826.0
1294	1927.0
1295	1945.0
1296	1879.0
1297	1871.0
1298	1888.0
1299	1872.0
1300	1838.0
1301	1862.0
1302	1874.0
1303	1878.0
1304	1864.0
1305	1823.0
1306	1787.0
1307	1801.0
1308	1832.0
1309	1835.0
1310	1833.0
1311	1806.0
1312	1815.0
1313	1829.0
1314	1830.0
1315	1889.0
1316	1892.0
1317	1847.0
1318	1819.0
1319	1846.0
1320	1842.0
1321	1855.0
1322	1826.0
1323	1848.0
1324	1879.0
1325	1859.0
1326	1852.0
1327	1818.0
1328	1836.0
1329	1844.0
1330	1841.0
1331	1801.0
1332	1823.0
1333	1865.0
1334	1851.0
1335	1847.0
1336	1822.0
1337	1835.0
1338	1827.0
1339	1995.0
1340	2052.0
1341	1994.0
1342	1988.0
1343	1981.0
1344	1996.0
1345	1938.0
1346	1954.0
1347	1937.0
1348	1884.0
1349	1850.0
1350	1830.0
1351	1830.0
1352	1832.0
1353	1858.0
1354	1850.0
1355	1859.0
1356	1840.0
1357	1930.0
1358	1953.0
1359	1889.0
1360	1974.0
1361	1999.0
1362	1924.0
1363	1856.0
1364	1899.0
1365	1909.0
1366	1896.0
1367	1945.0
1368	1981.0
1369	1940.0
1370	1902.0
1371	1894.0
1372	1859.0
1373	1853.0
1374	1831.0
1375	1832.0
1376	1849.0
1377	1888.0
1378	1880.0
1379	1858.0
1380	1863.0
1381	1856.0
1382	1863.0
1383	1861.0
1384	1866.0
1385	1846.0
1386	1837.0
1387	1834.0
1388	1850.0
1389	1849.0
1390	1814.0
1391	1828.0
1392	1815.0
1393	1843.0
1394	1851.0
1395	1860.0
1396	1850.0
1397	1854.0
1398	1857.0
1399	1838.0
1400	2293.0
1401	2380.0
1402	2119.0
1403	1957.0
1404	1991.0
1405	1979.0
1406	1900.0
1407	2419.0
1408	2515.0
1409	2198.0
1410	2009.0
1411	1914.0
1412	1849.0
1413	1856.0
1414	1857.0
1415	1830.0
1416	1825.0
1417	1800.0
1418	1811.0
1419	1819.0
1420	1848.0
1421	1824.0
1422	1845.0
1423	1822.0
1424	1827.0
1425	1823.0
1426	1767.0
1427	1798.0
1428	1850.0
1429	1914.0
1430	1885.0
1431	1844.0
1432	1815.0
1433	1817.0
1434	1901.0
1435	1900.0
1436	1941.0
1437	1919.0
1438	1863.0
1439	1949.0
1440	1984.0
1441	1938.0
1442	1899.0
1443	1874.0
1444	1869.0
1445	1922.0
1446	1906.0
1447	1891.0
1448	1874.0
1449	1858.0
1450	1862.0
1451	1859.0
1452	1843.0
1453	1798.0
1454	1828.0
1455	1839.0
1456	1839.0
1457	1824.0
1458	1809.0
1459	1915.0
1460	1977.0
1461	1928.0
1462	1886.0
1463	1880.0
1464	1880.0
1465	1880.0
1466	1852.0
1467	1858.0
1468	1858.0
1469	1872.0
1470	1853.0
1471	1824.0
1472	1839.0
1473	1839.0
1474	1845.0
1475	1837.0
1476	1854.0
1477	1845.0
1478	1851.0
1479	1819.0
1480	1794.0
1481	1872.0
1482	1903.0
1483	1899.0
1484	1886.0
1485	1879.0
1486	1880.0
1487	1880.0
1488	1864.0
1489	1846.0
1490	1851.0
1491	1850.0
1492	1868.0
1493	1868.0
1494	1894.0
1495	1868.0
1496	1866.0
1497	1880.0
1498	1855.0
1499	1823.0
1500	1836.0
1501	1886.0
1502	1961.0
1503	1958.0
1504	1885.0
1505	1879.0
1506	1976.0
1507	1997.0
1508	2087.0
1509	2068.0
1510	1978.0
1511	1895.0
1512	1923.0
1513	1889.0
1514	1860.0
1515	1844.0
1516	1839.0
1517	1852.0
1518	1849.0
1519	1846.0
1520	1823.0
1521	1793.0
1522	1805.0
1523	1835.0
1524	1837.0
1525	1821.0
1526	1830.0
1527	1841.0
1528	1863.0
1529	1850.0
1530	1810.0
1531	1791.0
1532	1883.0
1533	1908.0
1534	1864.0
1535	1847.0
1536	1829.0
1537	1836.0
1538	1816.0
1539	1808.0
1540	1813.0
1541	1839.0
1542	1830.0
1543	1836.0
1544	1854.0
1545	1866.0
1546	1881.0
1547	1884.0
1548	1870.0
1549	1846.0
1550	1823.0
1551	1821.0
1552	1825.0
1553	1821.0
1554	1847.0
1555	1869.0
1556	1867.0
1557	1864.0
1558	1866.0
1559	1874.0
1560	1848.0
1561	1859.0
1562	1837.0
1563	1828.0
1564	1798.0
1565	1803.0
1566	1836.0
1567	1844.0
1568	1862.0
1569	1834.0
1570	1842.0
1571	1846.0
1572	1844.0
1573	1846.0
1574	1855.0
1575	1838.0
1576	1856.0
1577	1991.0
1578	1965.0
1579	1915.0
1580	1871.0
1581	1827.0
1582	1820.0
1583	1814.0
1584	1842.0
1585	1864.0
1586	1890.0
1587	1864.0
1588	1856.0
1589	1856.0
1590	1884.0
1591	1900.0
1592	1962.0
1593	1989.0
1594	1963.0
1595	1930.0
1596	1856.0
1597	1845.0
1598	1818.0
1599	1827.0
1600	1812.0
1601	1796.0
1602	1826.0
1603	1858.0
1604	1865.0
1605	1839.0
1606	1842.0
1607	1834.0
1608	1825.0
1609	1842.0
1610	1839.0
1611	1839.0
1612	1825.0
1613	1826.0
1614	1834.0
1615	1846.0
1616	1927.0
1617	1949.0
1618	1913.0
1619	1928.0
1620	1929.0
1621	1874.0
1622	1852.0
1623	1821.0
1624	1827.0
1625	1842.0
1626	1837.0
1627	1820.0
1628	1843.0
1629	1866.0
1630	1853.0
1631	1876.0
1632	1898.0
1633	1904.0
1634	1874.0
1635	1867.0
1636	1850.0
1637	1844.0
1638	1857.0
1639	1831.0
1640	1813.0
1641	1801.0
1642	1812.0
1643	1833.0
1644	1838.0
1645	1847.0
1646	1876.0
1647	1859.0
1648	1855.0
1649	1866.0
1650	1835.0
1651	1860.0
1652	1845.0
1653	1852.0
1654	1831.0
1655	1823.0
1656	1816.0
1657	1796.0
1658	1821.0
1659	1830.0
1660	1838.0
1661	1828.0
1662	1868.0
1663	1855.0
1664	1879.0
1665	1856.0
1666	1849.0
1667	1905.0
1668	1858.0
1669	1816.0
1670	1814.0
1671	1854.0
1672	1849.0
1673	1823.0
1674	1798.0
1675	1824.0
1676	1849.0
1677	1790.0
1678	1815.0
1679	1822.0
1680	1842.0
1681	1825.0
1682	1790.0
1683	1796.0
1684	1820.0
1685	1837.0
1686	1818.0
1687	1840.0
1688	1860.0
1689	1853.0
1690	1848.0
1691	1863.0
1692	1963.0
1693	1975.0
1694	1934.0
1695	1903.0
1696	1890.0
1697	1864.0
1698	1823.0
1699	1793.0
1700	1852.0
1701	1885.0
1702	1895.0
1703	1893.0
1704	1862.0
1705	1925.0
1706	1925.0
1707	1875.0
1708	1843.0
1709	1826.0
1710	1832.0
1711	1835.0
1712	1858.0
1713	1855.0
1714	1863.0
1715	1874.0
1716	1893.0
1717	2001.0
1718	2008.0
1719	1929.0
1720	1912.0
1721	1900.0
1722	1889.0
1723	1991.0
1724	1999.0
1725	1945.0
1726	1881.0
1727	1848.0
1728	1860.0
1729	1862.0
1730	1875.0
1731	1960.0
1732	1987.0
1733	1964.0
1734	1947.0
1735	1889.0
1736	1909.0
1737	1908.0
1738	1872.0
1739	1847.0
1740	1835.0
1741	1871.0
1742	1873.0
1743	1847.0
1744	1823.0
1745	1837.0
1746	1839.0
1747	1846.0
1748	1852.0
1749	1804.0
1750	1817.0
1751	1822.0
1752	1925.0
1753	1954.0
1754	1928.0
1755	1957.0
1756	1943.0
1757	1876.0
1758	1825.0
1759	1840.0
1760	1835.0
1761	1822.0
1762	1814.0
1763	1834.0
1764	1824.0
1765	1813.0
1766	1840.0
1767	1906.0
1768	1919.0
1769	1876.0
1770	1868.0
1771	1850.0
1772	1855.0
1773	1843.0
1774	1828.0
1775	1835.0
1776	1829.0
1777	1843.0
1778	1896.0
1779	1909.0
1780	1863.0
1781	1837.0
1782	1829.0
1783	1814.0
1784	1815.0
1785	1812.0
1786	1850.0
1787	1895.0
1788	1887.0
1789	1863.0
1790	1863.0
1791	1859.0
1792	1861.0
1793	1866.0
1794	1864.0
1795	1845.0
1796	1826.0
1797	1816.0
1798	1820.0
1799	1846.0
1800	1830.0
1801	1826.0
1802	1817.0
1803	1805.0
1804	1799.0
1805	1797.0
1806	1813.0
1807	1817.0
1808	1837.0
1809	1852.0
1810	1839.0
1811	1804.0
1812	1816.0
1813	1829.0
1814	1830.0
1815	1830.0
1816	1812.0
1817	1826.0
1818	1849.0
1819	1871.0
1820	1894.0
1821	1903.0
1822	1864.0
1823	1864.0
1824	1835.0
1825	1814.0
1826	1842.0
1827	1853.0
1828	1871.0
1829	1870.0
1830	1885.0
1831	1871.0
1832	1884.0
1833	1881.0
1834	1864.0
1835	1885.0
1836	1877.0
1837	1886.0
1838	1879.0
1839	1899.0
1840	1856.0
1841	1821.0
1842	1843.0
1843	1849.0
1844	1946.0
1845	1972.0
1846	1934.0
1847	1897.0
1848	1893.0
1849	1885.0
1850	1888.0
1851	1892.0
1852	1866.0
1853	1834.0
1854	1860.0
1855	1890.0
1856	1854.0
1857	1856.0
1858	1851.0
1859	1868.0
1860	1876.0
1861	1868.0
1862	1853.0
1863	1829.0
1864	1836.0
1865	1817.0
1866	1817.0
1867	1832.0
1868	1820.0
1869	1932.0
1870	1995.0
1871	1944.0
1872	1908.0
1873	1884.0
1874	1851.0
1875	1867.0
1876	1847.0
1877	1876.0
1878	1868.0
1879	1832.0
1880	1850.0
1881	1828.0
1882	1821.0
1883	1819.0
1884	1840.0
1885	1832.0
1886	1818.0
1887	1803.0
1888	1799.0
1889	1802.0
1890	1886.0
1891	1925.0
1892	1880.0
1893	1871.0
1894	1874.0
1895	1925.0
1896	1900.0
1897	1882.0
1898	1887.0
1899	1858.0
1900	2079.0
1901	2109.0
1902	1981.0
1903	1972.0
1904	1949.0
1905	1892.0
1906	1919.0
1907	2002.0
1908	1988.0
1909	2001.0
1910	1952.0
1911	1892.0
1912	1972.0
1913	1986.0
1914	1904.0
1915	1864.0
1916	1845.0
1917	1846.0
1918	1868.0
1919	1812.0
1920	1798.0
1921	1800.0
1922	1804.0
1923	1814.0
1924	1799.0
1925	1800.0
1926	1787.0
1927	1795.0
1928	1807.0
1929	1839.0
1930	1842.0
1931	1856.0
1932	1845.0
1933	1842.0
1934	1856.0
1935	1860.0
1936	1972.0
1937	1960.0
1938	1901.0
1939	1846.0
1940	1855.0
1941	1840.0
1942	1834.0
1943	1830.0
1944	1831.0
1945	1852.0
1946	1859.0
1947	1871.0
1948	1847.0
1949	1851.0
1950	1853.0
1951	1859.0
1952	1863.0
1953	1890.0
1954	1903.0
1955	1908.0
1956	1932.0
1957	1888.0
1958	1885.0
1959	1874.0
1960	1856.0
1961	1839.0
1962	1849.0
1963	1842.0
1964	1832.0
1965	1847.0
1966	1837.0
1967	1831.0
1968	1822.0
1969	1844.0
1970	1839.0
1971	1825.0
1972	1828.0
1973	1816.0
1974	1849.0
1975	1825.0
1976	1855.0
1977	1862.0
1978	1886.0
1979	1876.0
1980	1829.0
1981	1827.0
1982	1834.0
1983	1832.0
1984	1825.0
1985	1835.0
1986	1811.0
1987	1826.0
1988	1817.0
1989	1810.0
1990	1819.0
1991	1832.0
1992	1846.0
1993	1882.0
1994	1893.0
1995	1848.0
1996	1850.0
1997	1821.0
1998	1823.0
1999	1846.0
2000	1841.0
2001	1861.0
2002	1941.0
2003	1951.0
2004	1886.0
2005	1873.0
2006	1825.0
2007	1802.0
2008	1832.0
2009	1821.0
2010	1822.0
2011	1818.0
2012	1850.0
2013	1853.0
2014	1842.0
2015	1840.0
2016	1857.0
2017	1864.0
2018	1843.0
2019	1844.0
2020	1843.0
2021	1862.0
2022	1888.0
2023	1888.0
2024	1891.0
2025	1895.0
2026	2239.0
2027	2469.0
2028	2329.0
2029	2216.0
2030	2121.0
2031	1984.0
2032	1924.0
2033	2053.0
2034	2082.0
2035	1955.0
2036	1907.0
2037	1892.0
2038	1946.0
2039	1980.0
2040	1933.0
2041	1892.0
2042	1864.0
2043	1863.0
2044	1873.0
2045	1867.0
2046	1892.0
2047	1876.0
