================================================================================
RAMAN SPECTROMETER DEBUG LOG
Timestamp: 2026-01-19T15:56:03.697078
================================================================================

--- CONFIGURATION ---
Port: /dev/ttyUSB0
Baudrate: 9600
Integration time: 200 ms
Timeout: 10.0 s
Expected data points: 2048
Min data points: 2048

--- RAW DATA INFO ---
Total bytes received: 14370
Null bytes count: 1

--- RAW BYTES (first 500, hex) ---
61 0d 0a 41 43 4b 0d 0a 0d 0a 49 32 30 30 0d 0a 
41 43 4b 0d 0a 0d 0a 53 0d 0a 41 43 4b 0d 0a 30 
31 38 33 34 0d 0a 30 31 38 30 36 0d 0a 30 31 38 
30 37 0d 0a 30 31 38 31 36 0d 0a 30 31 38 34 34 
0d 0a 30 31 38 36 38 0d 0a 30 31 38 34 31 0d 0a 
30 31 38 32 31 0d 0a 30 31 38 32 35 0d 0a 30 31 
37 39 38 0d 0a 30 31 38 30 37 0d 0a 30 31 38 33 
37 0d 0a 30 31 38 34 34 0d 0a 30 31 38 35 30 0d 
0a 30 31 38 35 38 0d 0a 30 31 38 39 32 0d 0a 30 
31 39 30 35 0d 0a 30 31 38 39 32 0d 0a 30 31 38 
37 32 0d 0a 30 31 38 35 30 0d 0a 30 31 38 34 32 
0d 0a 30 31 38 34 37 0d 0a 30 31 38 35 33 0d 0a 
30 31 38 34 34 0d 0a 30 31 38 34 31 0d 0a 30 31 
38 34 37 0d 0a 30 31 38 35 35 0d 0a 30 31 38 37 
33 0d 0a 30 31 38 32 37 0d 0a 30 31 38 31 38 0d 
0a 30 31 38 36 36 0d 0a 30 31 38 38 39 0d 0a 30 
31 38 38 36 0d 0a 30 31 38 37 31 0d 0a 30 31 38 
38 35 0d 0a 30 31 38 35 37 0d 0a 30 31 38 37 36 
0d 0a 30 31 38 38 38 0d 0a 30 31 38 36 30 0d 0a 
30 31 38 35 34 0d 0a 30 31 38 36 37 0d 0a 30 31 
38 35 38 0d 0a 30 31 38 34 33 0d 0a 30 31 38 35 
39 0d 0a 30 31 38 37 30 0d 0a 30 31 38 37 30 0d 
0a 30 31 38 36 33 0d 0a 30 31 38 37 35 0d 0a 30 
31 38 39 35 0d 0a 30 31 38 39 30 0d 0a 30 31 38 
36 38 0d 0a 30 31 38 36 32 0d 0a 30 31 38 38 34 
0d 0a 30 31 38 36 36 0d 0a 30 31 38 35 38 0d 0a 
30 31 38 35 35 0d 0a 30 31 38 34 35 0d 0a 30 31 
38 36 36 0d 0a 30 31 39 30 38 0d 0a 30 31 39 31 
36 0d 0a 30 31 38 38 33 0d 0a 30 31 38 37 35 0d 
0a 30 31 38 35 32 0d 0a 30 31 38 36 33 0d 0a 30 
31 38 34 38 0d 0a 30 31 38 34 36 0d 0a 30 31 38 
36 30 0d 0a

--- RAW DATA AS STRING (first 1000 chars) ---
a
ACK

I200
ACK

S
ACK
01834
01806
01807
01816
01844
01868
01841
01821
01825
01798
01807
01837
01844
01850
01858
01892
01905
01892
01872
01850
01842
01847
01853
01844
01841
01847
01855
01873
01827
01818
01866
01889
01886
01871
01885
01857
01876
01888
01860
01854
01867
01858
01843
01859
01870
01870
01863
01875
01895
01890
01868
01862
01884
01866
01858
01855
01845
01866
01908
01916
01883
01875
01852
01863
01848
01846
01860
01893
01897
01886
01877
01879
01869
01859
01887
01884
01894
01879
01859
01868
01838
01846
01817
01844
02077
02121
02011
01966
01905
01842
01845
01855
01899
01878
01863
01868
01862
01869
01850
01863
01878
01902
01882
01877
01872
01895
01887
01859
01866
01855
01861
01823
01835
01846
01863
01842
01861
01883
01904
01908
01871
01847
01863
01882
01861
01863
01877
01874
01866
01842
01840
01837
01847
01854
01859
01841
01857
01871
018

--- PARSED VALUES ---
Total parsed values: 2048
Min value: 1786.0
Max value: 11709.0
Mean value: 2916.976
Saturated values (>=65535): 0
First 20 values: [1834.0, 1806.0, 1807.0, 1816.0, 1844.0, 1868.0, 1841.0, 1821.0, 1825.0, 1798.0, 1807.0, 1837.0, 1844.0, 1850.0, 1858.0, 1892.0, 1905.0, 1892.0, 1872.0, 1850.0]
Last 20 values: [1949.0, 1935.0, 1918.0, 1877.0, 1844.0, 1887.0, 1904.0, 1894.0, 1918.0, 1882.0, 1900.0, 1905.0, 1880.0, 1863.0, 1850.0, 1824.0, 1846.0, 1863.0, 1838.0, 1836.0]

--- FULL SPECTRUM DATA (one value per line) ---
0	1834.0
1	1806.0
2	1807.0
3	1816.0
4	1844.0
5	1868.0
6	1841.0
7	1821.0
8	1825.0
9	1798.0
10	1807.0
11	1837.0
12	1844.0
13	1850.0
14	1858.0
15	1892.0
16	1905.0
17	1892.0
18	1872.0
19	1850.0
20	1842.0
21	1847.0
22	1853.0
23	1844.0
24	1841.0
25	1847.0
26	1855.0
27	1873.0
28	1827.0
29	1818.0
30	1866.0
31	1889.0
32	1886.0
33	1871.0
34	1885.0
35	1857.0
36	1876.0
37	1888.0
38	1860.0
39	1854.0
40	1867.0
41	1858.0
42	1843.0
43	1859.0
44	1870.0
45	1870.0
46	1863.0
47	1875.0
48	1895.0
49	1890.0
50	1868.0
51	1862.0
52	1884.0
53	1866.0
54	1858.0
55	1855.0
56	1845.0
57	1866.0
58	1908.0
59	1916.0
60	1883.0
61	1875.0
62	1852.0
63	1863.0
64	1848.0
65	1846.0
66	1860.0
67	1893.0
68	1897.0
69	1886.0
70	1877.0
71	1879.0
72	1869.0
73	1859.0
74	1887.0
75	1884.0
76	1894.0
77	1879.0
78	1859.0
79	1868.0
80	1838.0
81	1846.0
82	1817.0
83	1844.0
84	2077.0
85	2121.0
86	2011.0
87	1966.0
88	1905.0
89	1842.0
90	1845.0
91	1855.0
92	1899.0
93	1878.0
94	1863.0
95	1868.0
96	1862.0
97	1869.0
98	1850.0
99	1863.0
100	1878.0
101	1902.0
102	1882.0
103	1877.0
104	1872.0
105	1895.0
106	1887.0
107	1859.0
108	1866.0
109	1855.0
110	1861.0
111	1823.0
112	1835.0
113	1846.0
114	1863.0
115	1842.0
116	1861.0
117	1883.0
118	1904.0
119	1908.0
120	1871.0
121	1847.0
122	1863.0
123	1882.0
124	1861.0
125	1863.0
126	1877.0
127	1874.0
128	1866.0
129	1842.0
130	1840.0
131	1837.0
132	1847.0
133	1854.0
134	1859.0
135	1841.0
136	1857.0
137	1871.0
138	1879.0
139	1866.0
140	1831.0
141	1926.0
142	1929.0
143	1890.0
144	1883.0
145	1861.0
146	1847.0
147	1858.0
148	1886.0
149	1896.0
150	1904.0
151	1887.0
152	1885.0
153	1864.0
154	1868.0
155	1852.0
156	1846.0
157	1848.0
158	1843.0
159	1869.0
160	1843.0
161	1861.0
162	1886.0
163	1879.0
164	1845.0
165	1836.0
166	1813.0
167	1842.0
168	1864.0
169	1835.0
170	1839.0
171	1836.0
172	1830.0
173	1822.0
174	1832.0
175	1844.0
176	1832.0
177	1828.0
178	1828.0
179	1857.0
180	1871.0
181	1878.0
182	1840.0
183	1830.0
184	1825.0
185	1850.0
186	1878.0
187	1872.0
188	1871.0
189	1906.0
190	1909.0
191	1877.0
192	1850.0
193	1847.0
194	1847.0
195	1872.0
196	1915.0
197	1902.0
198	1883.0
199	1875.0
200	1861.0
201	1866.0
202	1866.0
203	1855.0
204	1835.0
205	1853.0
206	1850.0
207	1863.0
208	1849.0
209	1844.0
210	1871.0
211	1855.0
212	1846.0
213	1863.0
214	1927.0
215	1937.0
216	1940.0
217	1946.0
218	1915.0
219	1887.0
220	1858.0
221	1862.0
222	1838.0
223	1850.0
224	1834.0
225	1843.0
226	1838.0
227	1836.0
228	1874.0
229	1891.0
230	1874.0
231	1840.0
232	1852.0
233	1865.0
234	1871.0
235	1855.0
236	1876.0
237	1896.0
238	1913.0
239	1911.0
240	1860.0
241	1953.0
242	1962.0
243	1923.0
244	1872.0
245	1856.0
246	1870.0
247	1919.0
248	1920.0
249	1879.0
250	1899.0
251	1879.0
252	1861.0
253	1851.0
254	1879.0
255	1879.0
256	1872.0
257	1881.0
258	1860.0
259	1874.0
260	1864.0
261	1850.0
262	1840.0
263	1865.0
264	1859.0
265	1897.0
266	1909.0
267	1893.0
268	1873.0
269	1857.0
270	1877.0
271	1876.0
272	1867.0
273	1850.0
274	1874.0
275	1868.0
276	1866.0
277	1857.0
278	1879.0
279	1900.0
280	1882.0
281	1865.0
282	1845.0
283	1833.0
284	1818.0
285	1826.0
286	1806.0
287	1792.0
288	1824.0
289	1817.0
290	1842.0
291	1839.0
292	1850.0
293	1868.0
294	1905.0
295	1900.0
296	1879.0
297	1835.0
298	1830.0
299	1861.0
300	1870.0
301	1857.0
302	1850.0
303	1869.0
304	1880.0
305	1876.0
306	1854.0
307	1836.0
308	1829.0
309	1879.0
310	1933.0
311	1888.0
312	1865.0
313	1855.0
314	1854.0
315	1848.0
316	1877.0
317	1858.0
318	1884.0
319	1906.0
320	1882.0
321	1875.0
322	1869.0
323	1885.0
324	1866.0
325	1842.0
326	1844.0
327	1854.0
328	1848.0
329	1846.0
330	1855.0
331	1886.0
332	1925.0
333	1882.0
334	1887.0
335	1911.0
336	1919.0
337	1892.0
338	1871.0
339	1892.0
340	1921.0
341	1936.0
342	1927.0
343	1915.0
344	1876.0
345	1885.0
346	1897.0
347	1887.0
348	1923.0
349	1899.0
350	1883.0
351	1856.0
352	1861.0
353	1835.0
354	1836.0
355	1846.0
356	1866.0
357	1862.0
358	1877.0
359	1890.0
360	1868.0
361	1884.0
362	1905.0
363	1902.0
364	1891.0
365	1896.0
366	1891.0
367	1919.0
368	1927.0
369	1899.0
370	1896.0
371	1896.0
372	1891.0
373	1859.0
374	1842.0
375	1816.0
376	1859.0
377	1889.0
378	1878.0
379	1871.0
380	1864.0
381	1860.0
382	1853.0
383	1861.0
384	1850.0
385	1862.0
386	1838.0
387	1833.0
388	1840.0
389	1817.0
390	1823.0
391	1845.0
392	1874.0
393	1856.0
394	1849.0
395	1819.0
396	1826.0
397	1829.0
398	1818.0
399	1822.0
400	1817.0
401	1860.0
402	1846.0
403	1856.0
404	1893.0
405	1925.0
406	1908.0
407	1889.0
408	1890.0
409	1868.0
410	1862.0
411	1845.0
412	1844.0
413	1809.0
414	1819.0
415	1841.0
416	1830.0
417	1835.0
418	1792.0
419	1823.0
420	1840.0
421	1859.0
422	1869.0
423	1874.0
424	1869.0
425	1876.0
426	1868.0
427	1844.0
428	1864.0
429	1866.0
430	1871.0
431	1865.0
432	1871.0
433	1869.0
434	1884.0
435	1875.0
436	1888.0
437	1886.0
438	1853.0
439	1845.0
440	1888.0
441	1919.0
442	1879.0
443	1872.0
444	1847.0
445	1905.0
446	1909.0
447	1890.0
448	1887.0
449	1875.0
450	1845.0
451	1855.0
452	1854.0
453	1848.0
454	1863.0
455	1861.0
456	1860.0
457	1871.0
458	1852.0
459	1872.0
460	1861.0
461	1896.0
462	1905.0
463	1897.0
464	1873.0
465	1858.0
466	1839.0
467	1846.0
468	1860.0
469	1843.0
470	1859.0
471	1849.0
472	1848.0
473	1834.0
474	1869.0
475	1898.0
476	1875.0
477	1836.0
478	1837.0
479	1879.0
480	1912.0
481	1911.0
482	1872.0
483	1890.0
484	1874.0
485	1843.0
486	1848.0
487	1859.0
488	1878.0
489	1857.0
490	1846.0
491	1814.0
492	1835.0
493	1834.0
494	1844.0
495	1835.0
496	1817.0
497	1809.0
498	1824.0
499	1860.0
500	1868.0
501	1867.0
502	1863.0
503	1862.0
504	1831.0
505	1835.0
506	1852.0
507	1819.0
508	1803.0
509	1818.0
510	1863.0
511	1853.0
512	1866.0
513	1851.0
514	1865.0
515	1885.0
516	1878.0
517	1876.0
518	1895.0
519	1917.0
520	1882.0
521	1870.0
522	1853.0
523	1842.0
524	1834.0
525	1837.0
526	1842.0
527	1836.0
528	1856.0
529	1855.0
530	1838.0
531	1849.0
532	1880.0
533	1876.0
534	1912.0
535	1893.0
536	1868.0
537	1864.0
538	1858.0
539	1888.0
540	1890.0
541	1895.0
542	1874.0
543	1855.0
544	1849.0
545	1845.0
546	1862.0
547	1860.0
548	1860.0
549	1877.0
550	1900.0
551	1876.0
552	1848.0
553	1832.0
554	1850.0
555	1855.0
556	1879.0
557	1881.0
558	1884.0
559	1905.0
560	1873.0
561	1853.0
562	1840.0
563	1846.0
564	1831.0
565	1856.0
566	1856.0
567	1833.0
568	1837.0
569	1830.0
570	1844.0
571	1854.0
572	1872.0
573	1861.0
574	1860.0
575	1860.0
576	1853.0
577	1843.0
578	1821.0
579	1814.0
580	1812.0
581	1832.0
582	1827.0
583	1850.0
584	1862.0
585	1841.0
586	1857.0
587	1847.0
588	1863.0
589	1889.0
590	1923.0
591	1926.0
592	1897.0
593	1876.0
594	1887.0
595	1876.0
596	1904.0
597	1925.0
598	1917.0
599	1892.0
600	1848.0
601	1844.0
602	1840.0
603	1834.0
604	1829.0
605	1821.0
606	1820.0
607	1845.0
608	1853.0
609	1890.0
610	1877.0
611	1844.0
612	1863.0
613	1814.0
614	1819.0
615	1848.0
616	1880.0
617	1888.0
618	1866.0
619	1862.0
620	1863.0
621	1895.0
622	1899.0
623	1911.0
624	1909.0
625	1899.0
626	1861.0
627	1876.0
628	1894.0
629	1866.0
630	1842.0
631	1838.0
632	1877.0
633	1866.0
634	1874.0
635	1867.0
636	1821.0
637	1819.0
638	1857.0
639	1874.0
640	1827.0
641	1832.0
642	1831.0
643	1854.0
644	1847.0
645	1834.0
646	1826.0
647	1835.0
648	1863.0
649	1852.0
650	1840.0
651	1835.0
652	1846.0
653	1861.0
654	1888.0
655	1874.0
656	1864.0
657	1875.0
658	1865.0
659	1871.0
660	1856.0
661	1839.0
662	1831.0
663	1863.0
664	1887.0
665	1884.0
666	1876.0
667	1871.0
668	1893.0
669	1897.0
670	1893.0
671	1871.0
672	1882.0
673	1873.0
674	1878.0
675	1873.0
676	1853.0
677	1852.0
678	1862.0
679	1869.0
680	1867.0
681	1887.0
682	1860.0
683	1847.0
684	1847.0
685	1832.0
686	1843.0
687	1863.0
688	1888.0
689	1898.0
690	1898.0
691	1861.0
692	1871.0
693	1868.0
694	1885.0
695	1876.0
696	1862.0
697	1873.0
698	1860.0
699	1870.0
700	1872.0
701	1873.0
702	1871.0
703	1897.0
704	1893.0
705	1867.0
706	1882.0
707	1860.0
708	1855.0
709	1857.0
710	1884.0
711	1903.0
712	1891.0
713	1859.0
714	1873.0
715	1882.0
716	1889.0
717	1924.0
718	1926.0
719	1916.0
720	1914.0
721	1904.0
722	1871.0
723	1857.0
724	1845.0
725	1852.0
726	1845.0
727	1836.0
728	1879.0
729	1892.0
730	1873.0
731	1871.0
732	1898.0
733	1881.0
734	1912.0
735	1917.0
736	1934.0
737	1960.0
738	1907.0
739	1876.0
740	1875.0
741	1861.0
742	1830.0
743	1812.0
744	1832.0
745	1850.0
746	1852.0
747	1867.0
748	1911.0
749	1917.0
750	1904.0
751	1875.0
752	1896.0
753	1876.0
754	1869.0
755	1870.0
756	1839.0
757	1880.0
758	1897.0
759	1889.0
760	1892.0
761	1905.0
762	1899.0
763	1906.0
764	1890.0
765	1853.0
766	1846.0
767	1860.0
768	1901.0
769	1895.0
770	1892.0
771	1883.0
772	1890.0
773	1882.0
774	1876.0
775	1834.0
776	1830.0
777	1858.0
778	1831.0
779	1816.0
780	1835.0
781	1871.0
782	1864.0
783	1865.0
784	1863.0
785	1862.0
786	1878.0
787	1869.0
788	1862.0
789	1879.0
790	1858.0
791	1818.0
792	1861.0
793	1882.0
794	1876.0
795	1871.0
796	1855.0
797	1848.0
798	1862.0
799	1883.0
800	1872.0
801	1895.0
802	1872.0
803	1888.0
804	1896.0
805	1901.0
806	1890.0
807	1880.0
808	1891.0
809	1865.0
810	1890.0
811	1903.0
812	1898.0
813	1897.0
814	1899.0
815	1899.0
816	1909.0
817	1908.0
818	1863.0
819	1876.0
820	1886.0
821	1916.0
822	1910.0
823	1889.0
824	1896.0
825	1917.0
826	1913.0
827	1886.0
828	1905.0
829	1911.0
830	1885.0
831	1871.0
832	1903.0
833	1904.0
834	1907.0
835	1924.0
836	1894.0
837	1902.0
838	1900.0
839	1907.0
840	1893.0
841	1914.0
842	1912.0
843	1912.0
844	1913.0
845	1893.0
846	1900.0
847	1889.0
848	1878.0
849	1855.0
850	1870.0
851	1899.0
852	1914.0
853	1901.0
854	1883.0
855	1986.0
856	2013.0
857	1976.0
858	1925.0
859	1920.0
860	1909.0
861	1901.0
862	1911.0
863	1928.0
864	1913.0
865	1904.0
866	1897.0
867	1869.0
868	1913.0
869	1932.0
870	1936.0
871	1903.0
872	1897.0
873	1910.0
874	1911.0
875	1915.0
876	1915.0
877	1912.0
878	1887.0
879	1884.0
880	1842.0
881	1843.0
882	1867.0
883	1888.0
884	1904.0
885	1900.0
886	1911.0
887	1908.0
888	1913.0
889	1884.0
890	1883.0
891	1892.0
892	1897.0
893	1891.0
894	1894.0
895	1912.0
896	1913.0
897	1915.0
898	1895.0
899	1905.0
900	1892.0
901	1890.0
902	1915.0
903	1963.0
904	1941.0
905	1889.0
906	1913.0
907	1931.0
908	1978.0
909	1963.0
910	1939.0
911	1944.0
912	1926.0
913	1897.0
914	1918.0
915	1912.0
916	1885.0
917	1996.0
918	2027.0
919	1953.0
920	1912.0
921	1934.0
922	1930.0
923	1926.0
924	1945.0
925	1937.0
926	1947.0
927	1930.0
928	1917.0
929	1896.0
930	1916.0
931	1898.0
932	1890.0
933	1899.0
934	1917.0
935	1927.0
936	1945.0
937	1939.0
938	1925.0
939	1938.0
940	1929.0
941	1926.0
942	1911.0
943	1906.0
944	1918.0
945	1924.0
946	1935.0
947	1939.0
948	1933.0
949	1934.0
950	1939.0
951	1924.0
952	1922.0
953	1912.0
954	1901.0
955	1885.0
956	1899.0
957	1903.0
958	1904.0
959	1918.0
960	1913.0
961	1940.0
962	1947.0
963	1954.0
964	1960.0
965	1968.0
966	1955.0
967	1959.0
968	1963.0
969	1934.0
970	1952.0
971	1959.0
972	1958.0
973	1968.0
974	1951.0
975	1942.0
976	1963.0
977	1976.0
978	1951.0
979	1950.0
980	1960.0
981	1959.0
982	1954.0
983	2077.0
984	2121.0
985	2082.0
986	2067.0
987	2051.0
988	2110.0
989	2137.0
990	2169.0
991	2184.0
992	2200.0
993	2218.0
994	2261.0
995	2368.0
996	2408.0
997	2435.0
998	2479.0
999	2577.0
1000	2637.0
1001	2755.0
1002	2894.0
1003	2979.0
1004	3071.0
1005	3204.0
1006	3371.0
1007	3529.0
1008	3643.0
1009	3735.0
1010	3908.0
1011	4065.0
1012	4210.0
1013	4346.0
1014	4487.0
1015	4648.0
1016	4767.0
1017	4858.0
1018	4940.0
1019	4972.0
1020	5013.0
1021	5105.0
1022	5181.0
1023	5264.0
1024	5361.0
1025	5434.0
1026	5579.0
1027	5680.0
1028	5676.0
1029	5712.0
1030	5842.0
1031	5918.0
1032	5980.0
1033	6034.0
1034	6134.0
1035	6223.0
1036	6260.0
1037	6325.0
1038	6307.0
1039	6376.0
1040	6461.0
1041	6510.0
1042	6510.0
1043	6544.0
1044	6637.0
1045	6688.0
1046	6716.0
1047	6838.0
1048	6934.0
1049	6864.0
1050	6865.0
1051	6895.0
1052	7022.0
1053	7087.0
1054	7116.0
1055	7176.0
1056	7220.0
1057	7263.0
1058	7287.0
1059	7401.0
1060	7491.0
1061	7533.0
1062	7610.0
1063	7698.0
1064	7797.0
1065	7812.0
1066	7861.0
1067	7956.0
1068	8097.0
1069	8238.0
1070	8408.0
1071	8436.0
1072	8520.0
1073	8632.0
1074	8710.0
1075	8754.0
1076	8778.0
1077	8808.0
1078	8819.0
1079	8891.0
1080	8946.0
1081	9094.0
1082	9260.0
1083	9371.0
1084	9440.0
1085	9414.0
1086	9407.0
1087	9398.0
1088	9448.0
1089	9508.0
1090	9491.0
1091	9452.0
1092	9516.0
1093	9559.0
1094	9590.0
1095	9597.0
1096	9643.0
1097	9753.0
1098	9881.0
1099	10049.0
1100	10095.0
1101	10278.0
1102	10268.0
1103	10107.0
1104	10116.0
1105	10108.0
1106	10105.0
1107	10190.0
1108	10229.0
1109	10228.0
1110	10279.0
1111	10281.0
1112	10208.0
1113	10218.0
1114	10211.0
1115	10176.0
1116	10169.0
1117	10191.0
1118	10217.0
1119	10292.0
1120	10299.0
1121	10375.0
1122	10422.0
1123	10386.0
1124	10382.0
1125	10387.0
1126	10425.0
1127	10462.0
1128	10472.0
1129	10466.0
1130	10452.0
1131	10473.0
1132	10498.0
1133	10543.0
1134	10606.0
1135	10556.0
1136	10520.0
1137	10542.0
1138	10595.0
1139	10634.0
1140	10694.0
1141	10792.0
1142	10880.0
1143	10962.0
1144	10982.0
1145	11016.0
1146	11049.0
1147	10999.0
1148	10947.0
1149	10922.0
1150	10999.0
1151	11073.0
1152	11124.0
1153	11235.0
1154	11348.0
1155	11449.0
1156	11584.0
1157	11623.0
1158	11575.0
1159	11598.0
1160	11634.0
1161	11668.0
1162	11709.0
1163	11665.0
1164	11597.0
1165	11544.0
1166	11479.0
1167	11490.0
1168	11450.0
1169	11292.0
1170	11216.0
1171	11209.0
1172	11172.0
1173	11205.0
1174	11255.0
1175	11192.0
1176	11158.0
1177	11261.0
1178	11291.0
1179	11364.0
1180	11422.0
1181	11378.0
1182	11317.0
1183	11281.0
1184	11318.0
1185	11358.0
1186	11386.0
1187	11346.0
1188	11379.0
1189	11389.0
1190	11381.0
1191	11327.0
1192	11343.0
1193	11402.0
1194	11367.0
1195	11388.0
1196	11384.0
1197	11388.0
1198	11379.0
1199	11430.0
1200	11514.0
1201	11503.0
1202	11461.0
1203	11482.0
1204	11443.0
1205	11392.0
1206	11451.0
1207	11429.0
1208	11447.0
1209	11481.0
1210	11491.0
1211	11410.0
1212	11388.0
1213	11452.0
1214	11458.0
1215	11468.0
1216	11527.0
1217	11526.0
1218	11502.0
1219	11471.0
1220	11532.0
1221	11610.0
1222	11552.0
1223	11457.0
1224	11407.0
1225	11495.0
1226	11564.0
1227	11534.0
1228	11520.0
1229	11543.0
1230	11519.0
1231	11520.0
1232	11579.0
1233	11610.0
1234	11604.0
1235	11535.0
1236	11470.0
1237	11537.0
1238	11571.0
1239	11519.0
1240	11452.0
1241	11431.0
1242	11454.0
1243	11395.0
1244	11397.0
1245	11465.0
1246	11516.0
1247	11495.0
1248	11505.0
1249	11507.0
1250	11449.0
1251	11382.0
1252	11399.0
1253	11480.0
1254	11487.0
1255	11496.0
1256	11392.0
1257	11316.0
1258	11192.0
1259	10987.0
1260	10857.0
1261	10728.0
1262	10548.0
1263	10324.0
1264	10120.0
1265	9865.0
1266	9656.0
1267	9439.0
1268	9097.0
1269	8697.0
1270	8442.0
1271	8196.0
1272	7841.0
1273	7529.0
1274	7214.0
1275	6927.0
1276	6649.0
1277	6386.0
1278	6016.0
1279	5607.0
1280	5246.0
1281	4946.0
1282	4666.0
1283	4350.0
1284	4063.0
1285	3793.0
1286	3547.0
1287	3319.0
1288	3098.0
1289	2886.0
1290	2645.0
1291	2475.0
1292	2313.0
1293	2190.0
1294	2105.0
1295	2048.0
1296	1974.0
1297	1956.0
1298	1945.0
1299	1941.0
1300	1915.0
1301	1928.0
1302	1936.0
1303	1925.0
1304	1915.0
1305	1905.0
1306	1890.0
1307	1841.0
1308	1829.0
1309	1797.0
1310	1798.0
1311	1830.0
1312	1838.0
1313	1847.0
1314	1823.0
1315	1846.0
1316	1848.0
1317	1867.0
1318	1875.0
1319	1867.0
1320	1863.0
1321	1864.0
1322	1875.0
1323	1885.0
1324	1908.0
1325	1871.0
1326	1860.0
1327	1850.0
1328	1860.0
1329	1883.0
1330	1886.0
1331	1877.0
1332	1873.0
1333	1887.0
1334	1876.0
1335	1888.0
1336	1887.0
1337	1884.0
1338	1869.0
1339	1905.0
1340	1908.0
1341	1896.0
1342	1904.0
1343	1885.0
1344	1913.0
1345	1923.0
1346	1901.0
1347	1869.0
1348	1866.0
1349	1853.0
1350	1847.0
1351	1847.0
1352	1817.0
1353	1841.0
1354	1879.0
1355	1899.0
1356	1887.0
1357	1924.0
1358	1916.0
1359	1895.0
1360	1921.0
1361	1882.0
1362	1871.0
1363	1885.0
1364	1912.0
1365	1871.0
1366	1862.0
1367	1869.0
1368	1872.0
1369	1842.0
1370	1814.0
1371	1862.0
1372	1904.0
1373	1917.0
1374	1889.0
1375	1890.0
1376	1907.0
1377	1914.0
1378	1857.0
1379	1818.0
1380	1850.0
1381	1868.0
1382	1873.0
1383	1871.0
1384	1893.0
1385	1886.0
1386	1853.0
1387	1832.0
1388	1853.0
1389	1848.0
1390	1850.0
1391	1848.0
1392	1832.0
1393	1846.0
1394	1850.0
1395	1866.0
1396	1874.0
1397	1891.0
1398	1881.0
1399	1878.0
1400	2012.0
1401	2031.0
1402	1974.0
1403	1918.0
1404	1943.0
1405	1931.0
1406	1921.0
1407	2057.0
1408	2071.0
1409	1954.0
1410	1901.0
1411	1888.0
1412	1869.0
1413	1891.0
1414	1885.0
1415	1889.0
1416	1872.0
1417	1845.0
1418	1862.0
1419	1862.0
1420	1868.0
1421	1849.0
1422	1832.0
1423	1837.0
1424	1855.0
1425	1839.0
1426	1841.0
1427	1878.0
1428	1895.0
1429	1890.0
1430	1897.0
1431	1892.0
1432	1863.0
1433	1904.0
1434	1922.0
1435	1885.0
1436	1869.0
1437	1889.0
1438	1881.0
1439	1905.0
1440	1919.0
1441	1870.0
1442	1887.0
1443	1877.0
1444	1872.0
1445	1868.0
1446	1892.0
1447	1904.0
1448	1864.0
1449	1844.0
1450	1837.0
1451	1864.0
1452	1847.0
1453	1852.0
1454	1850.0
1455	1862.0
1456	1862.0
1457	1857.0
1458	1862.0
1459	1898.0
1460	1919.0
1461	1891.0
1462	1895.0
1463	1863.0
1464	1862.0
1465	1877.0
1466	1870.0
1467	1864.0
1468	1853.0
1469	1866.0
1470	1839.0
1471	1821.0
1472	1831.0
1473	1856.0
1474	1836.0
1475	1837.0
1476	1840.0
1477	1856.0
1478	1859.0
1479	1841.0
1480	1836.0
1481	1861.0
1482	1878.0
1483	1879.0
1484	1893.0
1485	1868.0
1486	1867.0
1487	1867.0
1488	1839.0
1489	1849.0
1490	1864.0
1491	1857.0
1492	1843.0
1493	1838.0
1494	1831.0
1495	1850.0
1496	1827.0
1497	1813.0
1498	1786.0
1499	1792.0
1500	1829.0
1501	1838.0
1502	1872.0
1503	1905.0
1504	1899.0
1505	1885.0
1506	1918.0
1507	1935.0
1508	1927.0
1509	1932.0
1510	1913.0
1511	1904.0
1512	1917.0
1513	1911.0
1514	1871.0
1515	1907.0
1516	1934.0
1517	1907.0
1518	1879.0
1519	1864.0
1520	1873.0
1521	1874.0
1522	1890.0
1523	1866.0
1524	1851.0
1525	1847.0
1526	1848.0
1527	1830.0
1528	1831.0
1529	1838.0
1530	1807.0
1531	1839.0
1532	1866.0
1533	1907.0
1534	1901.0
1535	1860.0
1536	1839.0
1537	1850.0
1538	1871.0
1539	1856.0
1540	1840.0
1541	1846.0
1542	1867.0
1543	1864.0
1544	1862.0
1545	1866.0
1546	1875.0
1547	1878.0
1548	1839.0
1549	1842.0
1550	1850.0
1551	1859.0
1552	1834.0
1553	1858.0
1554	1866.0
1555	1888.0
1556	1891.0
1557	1874.0
1558	1884.0
1559	1888.0
1560	1869.0
1561	1829.0
1562	1840.0
1563	1827.0
1564	1820.0
1565	1819.0
1566	1851.0
1567	1874.0
1568	1882.0
1569	1897.0
1570	1874.0
1571	1857.0
1572	1838.0
1573	1837.0
1574	1820.0
1575	1847.0
1576	1843.0
1577	1861.0
1578	1872.0
1579	1840.0
1580	1833.0
1581	1850.0
1582	1864.0
1583	1853.0
1584	1859.0
1585	1858.0
1586	1842.0
1587	1837.0
1588	1836.0
1589	1846.0
1590	1853.0
1591	1866.0
1592	1871.0
1593	1888.0
1594	1895.0
1595	1898.0
1596	1875.0
1597	1847.0
1598	1872.0
1599	1848.0
1600	1853.0
1601	1848.0
1602	1861.0
1603	1893.0
1604	1925.0
1605	1911.0
1606	1894.0
1607	1871.0
1608	1835.0
1609	1831.0
1610	1828.0
1611	1829.0
1612	1820.0
1613	1837.0
1614	1849.0
1615	1842.0
1616	1844.0
1617	1873.0
1618	1885.0
1619	1858.0
1620	1864.0
1621	1866.0
1622	1888.0
1623	1859.0
1624	1862.0
1625	1858.0
1626	1850.0
1627	1831.0
1628	1793.0
1629	1802.0
1630	1822.0
1631	1852.0
1632	1846.0
1633	1849.0
1634	1845.0
1635	1851.0
1636	1855.0
1637	1824.0
1638	1825.0
1639	1813.0
1640	1822.0
1641	1810.0
1642	1835.0
1643	1851.0
1644	1837.0
1645	1853.0
1646	1866.0
1647	1874.0
1648	1863.0
1649	1873.0
1650	1855.0
1651	1867.0
1652	1862.0
1653	1863.0
1654	1888.0
1655	1901.0
1656	1857.0
1657	1831.0
1658	1815.0
1659	1820.0
1660	1842.0
1661	1855.0
1662	1895.0
1663	1897.0
1664	1898.0
1665	1876.0
1666	1879.0
1667	1889.0
1668	1871.0
1669	1869.0
1670	1852.0
1671	1864.0
1672	1879.0
1673	1906.0
1674	1900.0
1675	1884.0
1676	1837.0
1677	1825.0
1678	1849.0
1679	1856.0
1680	1860.0
1681	1862.0
1682	1872.0
1683	1887.0
1684	1894.0
1685	1880.0
1686	1866.0
1687	1862.0
1688	1876.0
1689	1905.0
1690	1892.0
1691	1883.0
1692	1894.0
1693	1920.0
1694	1888.0
1695	1887.0
1696	1879.0
1697	1878.0
1698	1889.0
1699	1855.0
1700	1833.0
1701	1841.0
1702	1835.0
1703	1805.0
1704	1839.0
1705	1879.0
1706	1877.0
1707	1850.0
1708	1849.0
1709	1864.0
1710	1875.0
1711	1883.0
1712	1870.0
1713	1868.0
1714	1864.0
1715	1836.0
1716	1826.0
1717	1837.0
1718	1852.0
1719	1842.0
1720	1880.0
1721	1879.0
1722	1880.0
1723	1901.0
1724	1909.0
1725	1881.0
1726	1861.0
1727	1873.0
1728	1874.0
1729	1877.0
1730	1879.0
1731	1905.0
1732	1881.0
1733	1870.0
1734	1871.0
1735	1869.0
1736	1876.0
1737	1897.0
1738	1855.0
1739	1814.0
1740	1850.0
1741	1858.0
1742	1884.0
1743	1889.0
1744	1898.0
1745	1863.0
1746	1844.0
1747	1852.0
1748	1862.0
1749	1863.0
1750	1875.0
1751	1867.0
1752	1875.0
1753	1910.0
1754	1873.0
1755	1873.0
1756	1867.0
1757	1843.0
1758	1834.0
1759	1847.0
1760	1844.0
1761	1840.0
1762	1834.0
1763	1807.0
1764	1823.0
1765	1836.0
1766	1866.0
1767	1892.0
1768	1869.0
1769	1857.0
1770	1829.0
1771	1861.0
1772	1851.0
1773	1839.0
1774	1862.0
1775	1864.0
1776	1825.0
1777	1822.0
1778	1833.0
1779	1814.0
1780	1833.0
1781	1873.0
1782	1894.0
1783	1866.0
1784	1853.0
1785	1860.0
1786	1870.0
1787	1890.0
1788	1833.0
1789	1842.0
1790	1853.0
1791	1882.0
1792	1896.0
1793	1880.0
1794	1846.0
1795	1850.0
1796	1866.0
1797	1836.0
1798	1846.0
1799	1839.0
1800	1829.0
1801	1821.0
1802	1847.0
1803	1840.0
1804	1854.0
1805	1878.0
1806	1873.0
1807	1879.0
1808	1869.0
1809	1868.0
1810	1875.0
1811	1884.0
1812	1860.0
1813	1854.0
1814	1860.0
1815	1843.0
1816	1838.0
1817	1822.0
1818	1832.0
1819	1853.0
1820	1870.0
1821	1851.0
1822	1844.0
1823	1831.0
1824	1845.0
1825	1844.0
1826	1829.0
1827	1844.0
1828	1866.0
1829	1857.0
1830	1847.0
1831	1870.0
1832	1874.0
1833	1894.0
1834	1885.0
1835	1857.0
1836	1844.0
1837	1834.0
1838	1841.0
1839	1843.0
1840	1867.0
1841	1862.0
1842	1885.0
1843	1900.0
1844	1897.0
1845	1895.0
1846	1874.0
1847	1880.0
1848	1871.0
1849	1895.0
1850	1887.0
1851	1882.0
1852	1879.0
1853	1902.0
1854	1896.0
1855	1882.0
1856	1888.0
1857	1874.0
1858	1892.0
1859	1852.0
1860	1864.0
1861	1871.0
1862	1852.0
1863	1807.0
1864	1825.0
1865	1835.0
1866	1830.0
1867	1840.0
1868	1817.0
1869	1850.0
1870	1857.0
1871	1850.0
1872	1832.0
1873	1844.0
1874	1840.0
1875	1850.0
1876	1864.0
1877	1832.0
1878	1829.0
1879	1840.0
1880	1862.0
1881	1850.0
1882	1868.0
1883	1873.0
1884	1867.0
1885	1871.0
1886	1846.0
1887	1833.0
1888	1828.0
1889	1856.0
1890	1868.0
1891	1882.0
1892	1863.0
1893	1858.0
1894	1846.0
1895	1827.0
1896	1850.0
1897	1860.0
1898	1849.0
1899	1846.0
1900	2011.0
1901	2038.0
1902	1958.0
1903	1916.0
1904	1909.0
1905	1881.0
1906	1866.0
1907	1904.0
1908	1887.0
1909	1895.0
1910	1889.0
1911	1882.0
1912	1871.0
1913	1872.0
1914	1861.0
1915	1876.0
1916	1852.0
1917	1849.0
1918	1864.0
1919	1829.0
1920	1836.0
1921	1840.0
1922	1869.0
1923	1859.0
1924	1858.0
1925	1860.0
1926	1856.0
1927	1872.0
1928	1871.0
1929	1864.0
1930	1852.0
1931	1866.0
1932	1829.0
1933	1820.0
1934	1818.0
1935	1832.0
1936	1870.0
1937	1888.0
1938	1850.0
1939	1849.0
1940	1889.0
1941	1902.0
1942	1904.0
1943	1862.0
1944	1876.0
1945	1874.0
1946	1873.0
1947	1890.0
1948	1867.0
1949	1864.0
1950	1852.0
1951	1860.0
1952	1856.0
1953	1875.0
1954	1855.0
1955	1851.0
1956	1876.0
1957	1853.0
1958	1873.0
1959	1848.0
1960	1829.0
1961	1800.0
1962	1816.0
1963	1828.0
1964	1832.0
1965	1838.0
1966	1836.0
1967	1844.0
1968	1840.0
1969	1866.0
1970	1847.0
1971	1881.0
1972	1870.0
1973	1864.0
1974	1877.0
1975	1859.0
1976	1877.0
1977	1891.0
1978	1874.0
1979	1856.0
1980	1842.0
1981	1827.0
1982	1831.0
1983	1817.0
1984	1854.0
1985	1869.0
1986	1843.0
1987	1856.0
1988	1835.0
1989	1837.0
1990	1845.0
1991	1847.0
1992	1845.0
1993	1864.0
1994	1851.0
1995	1849.0
1996	1851.0
1997	1868.0
1998	1896.0
1999	1900.0
2000	1891.0
2001	1875.0
2002	1905.0
2003	1885.0
2004	1862.0
2005	1860.0
2006	1860.0
2007	1873.0
2008	1867.0
2009	1874.0
2010	1820.0
2011	1811.0
2012	1830.0
2013	1861.0
2014	1870.0
2015	1903.0
2016	1935.0
2017	1917.0
2018	1911.0
2019	1871.0
2020	1860.0
2021	1845.0
2022	1862.0
2023	1858.0
2024	1868.0
2025	1861.0
2026	1906.0
2027	1976.0
2028	1949.0
2029	1935.0
2030	1918.0
2031	1877.0
2032	1844.0
2033	1887.0
2034	1904.0
2035	1894.0
2036	1918.0
2037	1882.0
2038	1900.0
2039	1905.0
2040	1880.0
2041	1863.0
2042	1850.0
2043	1824.0
2044	1846.0
2045	1863.0
2046	1838.0
2047	1836.0
