================================================================================
RAMAN SPECTROMETER DEBUG LOG
Timestamp: 2026-01-19T15:56:24.122149
================================================================================

--- CONFIGURATION ---
Port: /dev/ttyUSB0
Baudrate: 9600
Integration time: 200 ms
Timeout: 10.0 s
Expected data points: 2048
Min data points: 2048

--- RAW DATA INFO ---
Total bytes received: 14370
Null bytes count: 1

--- RAW BYTES (first 500, hex) ---
61 0d 0a 41 43 4b 0d 0a 0d 0a 49 32 30 30 0d 0a 
41 43 4b 0d 0a 0d 0a 53 0d 0a 41 43 4b 0d 0a 30 
31 38 33 33 0d 0a 30 31 38 33 38 0d 0a 30 31 38 
34 34 0d 0a 30 31 38 37 31 0d 0a 30 31 38 38 36 
0d 0a 30 31 38 38 35 0d 0a 30 31 39 30 35 0d 0a 
30 31 39 30 33 0d 0a 30 31 38 37 32 0d 0a 30 31 
38 33 32 0d 0a 30 31 38 35 35 0d 0a 30 31 38 36 
39 0d 0a 30 31 38 37 39 0d 0a 30 31 38 36 31 0d 
0a 30 31 38 35 30 0d 0a 30 31 38 35 31 0d 0a 30 
31 38 36 34 0d 0a 30 31 38 37 30 0d 0a 30 31 38 
35 33 0d 0a 30 31 38 36 33 0d 0a 30 31 38 33 38 
0d 0a 30 31 38 38 30 0d 0a 30 31 38 39 35 0d 0a 
30 31 38 39 33 0d 0a 30 31 38 37 34 0d 0a 30 31 
38 35 35 0d 0a 30 31 38 34 36 0d 0a 30 31 38 32 
39 0d 0a 30 31 38 34 33 0d 0a 30 31 38 34 35 0d 
0a 30 31 38 35 39 0d 0a 30 31 38 33 34 0d 0a 30 
31 38 31 31 0d 0a 30 31 38 30 35 0d 0a 30 31 38 
33 36 0d 0a 30 31 38 36 33 0d 0a 30 31 38 32 34 
0d 0a 30 31 38 33 33 0d 0a 30 31 38 33 37 0d 0a 
30 31 38 34 37 0d 0a 30 31 38 33 36 0d 0a 30 31 
38 34 37 0d 0a 30 31 38 34 36 0d 0a 30 31 38 37 
31 0d 0a 30 31 39 31 33 0d 0a 30 31 38 38 38 0d 
0a 30 31 38 38 30 0d 0a 30 31 38 38 31 0d 0a 30 
31 38 39 34 0d 0a 30 31 38 35 38 0d 0a 30 31 38 
34 39 0d 0a 30 31 38 35 32 0d 0a 30 31 38 36 32 
0d 0a 30 31 38 36 31 0d 0a 30 31 38 36 34 0d 0a 
30 31 38 35 38 0d 0a 30 31 38 36 39 0d 0a 30 31 
39 32 33 0d 0a 30 31 39 31 30 0d 0a 30 31 38 36 
39 0d 0a 30 31 38 35 36 0d 0a 30 31 38 35 36 0d 
0a 30 31 38 32 35 0d 0a 30 31 38 35 34 0d 0a 30 
31 38 38 32 0d 0a 30 31 38 37 39 0d 0a 30 31 38 
36 36 0d 0a

--- RAW DATA AS STRING (first 1000 chars) ---
a
ACK

I200
ACK

S
ACK
01833
01838
01844
01871
01886
01885
01905
01903
01872
01832
01855
01869
01879
01861
01850
01851
01864
01870
01853
01863
01838
01880
01895
01893
01874
01855
01846
01829
01843
01845
01859
01834
01811
01805
01836
01863
01824
01833
01837
01847
01836
01847
01846
01871
01913
01888
01880
01881
01894
01858
01849
01852
01862
01861
01864
01858
01869
01923
01910
01869
01856
01856
01825
01854
01882
01879
01866
01848
01856
01864
01886
01880
01850
01830
01852
01854
01844
01860
01869
01874
01859
01843
01834
01847
02056
02133
02027
01938
01890
01859
01869
01875
01916
01932
01912
01868
01855
01887
01871
01896
01876
01864
01836
01857
01860
01852
01849
01819
01850
01862
01860
01850
01860
01862
01848
01841
01827
01849
01873
01887
01879
01891
01871
01883
01901
01890
01896
01863
01845
01854
01861
01837
01842
01862
01863
01852
01863
01889
018

--- PARSED VALUES ---
Total parsed values: 2048
Min value: 1796.0
Max value: 2133.0
Mean value: 1879.143
Saturated values (>=65535): 0
First 20 values: [1833.0, 1838.0, 1844.0, 1871.0, 1886.0, 1885.0, 1905.0, 1903.0, 1872.0, 1832.0, 1855.0, 1869.0, 1879.0, 1861.0, 1850.0, 1851.0, 1864.0, 1870.0, 1853.0, 1863.0]
Last 20 values: [2009.0, 1994.0, 1951.0, 1900.0, 1879.0, 1922.0, 1955.0, 1910.0, 1905.0, 1895.0, 1910.0, 1884.0, 1897.0, 1871.0, 1873.0, 1866.0, 1803.0, 1831.0, 1852.0, 1855.0]

--- FULL SPECTRUM DATA (one value per line) ---
0	1833.0
1	1838.0
2	1844.0
3	1871.0
4	1886.0
5	1885.0
6	1905.0
7	1903.0
8	1872.0
9	1832.0
10	1855.0
11	1869.0
12	1879.0
13	1861.0
14	1850.0
15	1851.0
16	1864.0
17	1870.0
18	1853.0
19	1863.0
20	1838.0
21	1880.0
22	1895.0
23	1893.0
24	1874.0
25	1855.0
26	1846.0
27	1829.0
28	1843.0
29	1845.0
30	1859.0
31	1834.0
32	1811.0
33	1805.0
34	1836.0
35	1863.0
36	1824.0
37	1833.0
38	1837.0
39	1847.0
40	1836.0
41	1847.0
42	1846.0
43	1871.0
44	1913.0
45	1888.0
46	1880.0
47	1881.0
48	1894.0
49	1858.0
50	1849.0
51	1852.0
52	1862.0
53	1861.0
54	1864.0
55	1858.0
56	1869.0
57	1923.0
58	1910.0
59	1869.0
60	1856.0
61	1856.0
62	1825.0
63	1854.0
64	1882.0
65	1879.0
66	1866.0
67	1848.0
68	1856.0
69	1864.0
70	1886.0
71	1880.0
72	1850.0
73	1830.0
74	1852.0
75	1854.0
76	1844.0
77	1860.0
78	1869.0
79	1874.0
80	1859.0
81	1843.0
82	1834.0
83	1847.0
84	2056.0
85	2133.0
86	2027.0
87	1938.0
88	1890.0
89	1859.0
90	1869.0
91	1875.0
92	1916.0
93	1932.0
94	1912.0
95	1868.0
96	1855.0
97	1887.0
98	1871.0
99	1896.0
100	1876.0
101	1864.0
102	1836.0
103	1857.0
104	1860.0
105	1852.0
106	1849.0
107	1819.0
108	1850.0
109	1862.0
110	1860.0
111	1850.0
112	1860.0
113	1862.0
114	1848.0
115	1841.0
116	1827.0
117	1849.0
118	1873.0
119	1887.0
120	1879.0
121	1891.0
122	1871.0
123	1883.0
124	1901.0
125	1890.0
126	1896.0
127	1863.0
128	1845.0
129	1854.0
130	1861.0
131	1837.0
132	1842.0
133	1862.0
134	1863.0
135	1852.0
136	1863.0
137	1889.0
138	1883.0
139	1908.0
140	1876.0
141	1936.0
142	1941.0
143	1906.0
144	1858.0
145	1825.0
146	1820.0
147	1850.0
148	1898.0
149	1890.0
150	1872.0
151	1867.0
152	1880.0
153	1858.0
154	1832.0
155	1832.0
156	1832.0
157	1829.0
158	1836.0
159	1880.0
160	1861.0
161	1855.0
162	1857.0
163	1873.0
164	1887.0
165	1869.0
166	1856.0
167	1866.0
168	1855.0
169	1854.0
170	1865.0
171	1871.0
172	1890.0
173	1842.0
174	1810.0
175	1800.0
176	1801.0
177	1842.0
178	1840.0
179	1858.0
180	1841.0
181	1858.0
182	1864.0
183	1862.0
184	1844.0
185	1852.0
186	1867.0
187	1849.0
188	1862.0
189	1883.0
190	1877.0
191	1855.0
192	1850.0
193	1849.0
194	1889.0
195	1887.0
196	1847.0
197	1863.0
198	1872.0
199	1857.0
200	1830.0
201	1829.0
202	1832.0
203	1828.0
204	1806.0
205	1805.0
206	1841.0
207	1861.0
208	1874.0
209	1869.0
210	1866.0
211	1861.0
212	1869.0
213	1856.0
214	1916.0
215	1924.0
216	1908.0
217	1893.0
218	1859.0
219	1856.0
220	1858.0
221	1879.0
222	1886.0
223	1908.0
224	1892.0
225	1883.0
226	1893.0
227	1866.0
228	1868.0
229	1876.0
230	1889.0
231	1887.0
232	1895.0
233	1944.0
234	1931.0
235	1892.0
236	1887.0
237	1894.0
238	1872.0
239	1884.0
240	1875.0
241	1930.0
242	1952.0
243	1954.0
244	1937.0
245	1898.0
246	1901.0
247	1922.0
248	1905.0
249	1841.0
250	1840.0
251	1839.0
252	1862.0
253	1858.0
254	1847.0
255	1843.0
256	1859.0
257	1853.0
258	1831.0
259	1857.0
260	1863.0
261	1880.0
262	1871.0
263	1885.0
264	1878.0
265	1926.0
266	1952.0
267	1896.0
268	1887.0
269	1875.0
270	1886.0
271	1874.0
272	1875.0
273	1850.0
274	1837.0
275	1856.0
276	1860.0
277	1914.0
278	1904.0
279	1884.0
280	1871.0
281	1854.0
282	1843.0
283	1840.0
284	1827.0
285	1845.0
286	1874.0
287	1882.0
288	1861.0
289	1849.0
290	1866.0
291	1854.0
292	1842.0
293	1822.0
294	1853.0
295	1861.0
296	1851.0
297	1865.0
298	1845.0
299	1852.0
300	1862.0
301	1846.0
302	1833.0
303	1862.0
304	1858.0
305	1851.0
306	1842.0
307	1824.0
308	1823.0
309	1920.0
310	1960.0
311	1905.0
312	1876.0
313	1853.0
314	1888.0
315	1899.0
316	1881.0
317	1873.0
318	1888.0
319	1889.0
320	1854.0
321	1864.0
322	1855.0
323	1858.0
324	1865.0
325	1889.0
326	1870.0
327	1859.0
328	1868.0
329	1886.0
330	1921.0
331	1915.0
332	1888.0
333	1857.0
334	1875.0
335	1915.0
336	1923.0
337	1906.0
338	1868.0
339	1860.0
340	1859.0
341	1900.0
342	1881.0
343	1857.0
344	1851.0
345	1853.0
346	1872.0
347	1848.0
348	1877.0
349	1879.0
350	1875.0
351	1882.0
352	1886.0
353	1875.0
354	1869.0
355	1864.0
356	1847.0
357	1862.0
358	1841.0
359	1849.0
360	1856.0
361	1856.0
362	1863.0
363	1870.0
364	1866.0
365	1891.0
366	1897.0
367	1868.0
368	1868.0
369	1848.0
370	1868.0
371	1861.0
372	1887.0
373	1877.0
374	1881.0
375	1862.0
376	1858.0
377	1867.0
378	1866.0
379	1878.0
380	1884.0
381	1876.0
382	1866.0
383	1879.0
384	1851.0
385	1859.0
386	1872.0
387	1856.0
388	1866.0
389	1860.0
390	1870.0
391	1866.0
392	1894.0
393	1887.0
394	1903.0
395	1899.0
396	1879.0
397	1875.0
398	1861.0
399	1837.0
400	1831.0
401	1853.0
402	1851.0
403	1855.0
404	1892.0
405	1910.0
406	1881.0
407	1859.0
408	1850.0
409	1853.0
410	1872.0
411	1852.0
412	1870.0
413	1864.0
414	1863.0
415	1864.0
416	1870.0
417	1864.0
418	1848.0
419	1872.0
420	1874.0
421	1880.0
422	1905.0
423	1891.0
424	1850.0
425	1858.0
426	1889.0
427	1863.0
428	1897.0
429	1876.0
430	1871.0
431	1867.0
432	1879.0
433	1881.0
434	1883.0
435	1875.0
436	1861.0
437	1870.0
438	1842.0
439	1848.0
440	1885.0
441	1902.0
442	1895.0
443	1891.0
444	1886.0
445	1901.0
446	1913.0
447	1881.0
448	1858.0
449	1833.0
450	1856.0
451	1847.0
452	1842.0
453	1843.0
454	1846.0
455	1848.0
456	1861.0
457	1879.0
458	1856.0
459	1850.0
460	1849.0
461	1875.0
462	1856.0
463	1852.0
464	1855.0
465	1870.0
466	1871.0
467	1862.0
468	1858.0
469	1891.0
470	1885.0
471	1857.0
472	1874.0
473	1899.0
474	1932.0
475	1938.0
476	1905.0
477	1893.0
478	1882.0
479	1903.0
480	1872.0
481	1857.0
482	1846.0
483	1868.0
484	1872.0
485	1879.0
486	1888.0
487	1899.0
488	1919.0
489	1893.0
490	1856.0
491	1856.0
492	1870.0
493	1866.0
494	1869.0
495	1856.0
496	1865.0
497	1867.0
498	1831.0
499	1838.0
500	1847.0
501	1874.0
502	1840.0
503	1847.0
504	1869.0
505	1900.0
506	1907.0
507	1859.0
508	1862.0
509	1854.0
510	1876.0
511	1877.0
512	1868.0
513	1876.0
514	1888.0
515	1900.0
516	1885.0
517	1894.0
518	1904.0
519	1891.0
520	1860.0
521	1855.0
522	1846.0
523	1828.0
524	1824.0
525	1859.0
526	1853.0
527	1826.0
528	1845.0
529	1856.0
530	1847.0
531	1823.0
532	1842.0
533	1817.0
534	1825.0
535	1832.0
536	1858.0
537	1840.0
538	1829.0
539	1855.0
540	1881.0
541	1892.0
542	1875.0
543	1885.0
544	1870.0
545	1856.0
546	1867.0
547	1870.0
548	1892.0
549	1894.0
550	1896.0
551	1845.0
552	1864.0
553	1839.0
554	1845.0
555	1869.0
556	1874.0
557	1877.0
558	1871.0
559	1886.0
560	1877.0
561	1894.0
562	1899.0
563	1878.0
564	1848.0
565	1843.0
566	1860.0
567	1875.0
568	1877.0
569	1864.0
570	1901.0
571	1896.0
572	1890.0
573	1873.0
574	1887.0
575	1892.0
576	1892.0
577	1875.0
578	1856.0
579	1874.0
580	1878.0
581	1865.0
582	1826.0
583	1822.0
584	1816.0
585	1842.0
586	1879.0
587	1841.0
588	1859.0
589	1869.0
590	1875.0
591	1842.0
592	1853.0
593	1860.0
594	1853.0
595	1876.0
596	1940.0
597	1954.0
598	1935.0
599	1913.0
600	1871.0
601	1863.0
602	1841.0
603	1843.0
604	1841.0
605	1865.0
606	1870.0
607	1872.0
608	1863.0
609	1879.0
610	1900.0
611	1881.0
612	1860.0
613	1829.0
614	1861.0
615	1887.0
616	1884.0
617	1889.0
618	1868.0
619	1874.0
620	1864.0
621	1873.0
622	1858.0
623	1855.0
624	1850.0
625	1846.0
626	1826.0
627	1838.0
628	1858.0
629	1860.0
630	1864.0
631	1845.0
632	1861.0
633	1881.0
634	1874.0
635	1864.0
636	1874.0
637	1882.0
638	1889.0
639	1899.0
640	1866.0
641	1876.0
642	1887.0
643	1929.0
644	1919.0
645	1903.0
646	1864.0
647	1863.0
648	1870.0
649	1846.0
650	1855.0
651	1854.0
652	1853.0
653	1826.0
654	1851.0
655	1861.0
656	1862.0
657	1854.0
658	1842.0
659	1862.0
660	1856.0
661	1861.0
662	1883.0
663	1906.0
664	1870.0
665	1884.0
666	1886.0
667	1865.0
668	1860.0
669	1849.0
670	1852.0
671	1837.0
672	1841.0
673	1868.0
674	1867.0
675	1853.0
676	1845.0
677	1856.0
678	1842.0
679	1853.0
680	1885.0
681	1884.0
682	1863.0
683	1870.0
684	1855.0
685	1863.0
686	1853.0
687	1853.0
688	1869.0
689	1879.0
690	1873.0
691	1862.0
692	1889.0
693	1877.0
694	1860.0
695	1850.0
696	1856.0
697	1867.0
698	1872.0
699	1876.0
700	1868.0
701	1867.0
702	1843.0
703	1854.0
704	1852.0
705	1880.0
706	1905.0
707	1893.0
708	1884.0
709	1880.0
710	1883.0
711	1890.0
712	1881.0
713	1860.0
714	1895.0
715	1879.0
716	1859.0
717	1882.0
718	1877.0
719	1868.0
720	1853.0
721	1862.0
722	1855.0
723	1858.0
724	1852.0
725	1870.0
726	1884.0
727	1920.0
728	1925.0
729	1876.0
730	1861.0
731	1859.0
732	1892.0
733	1893.0
734	1905.0
735	1898.0
736	1916.0
737	1921.0
738	1881.0
739	1890.0
740	1879.0
741	1879.0
742	1851.0
743	1856.0
744	1870.0
745	1881.0
746	1855.0
747	1860.0
748	1904.0
749	1919.0
750	1921.0
751	1844.0
752	1830.0
753	1866.0
754	1859.0
755	1838.0
756	1836.0
757	1865.0
758	1902.0
759	1894.0
760	1868.0
761	1850.0
762	1848.0
763	1860.0
764	1864.0
765	1841.0
766	1814.0
767	1822.0
768	1851.0
769	1840.0
770	1848.0
771	1864.0
772	1880.0
773	1856.0
774	1854.0
775	1852.0
776	1885.0
777	1897.0
778	1897.0
779	1903.0
780	1888.0
781	1882.0
782	1867.0
783	1890.0
784	1881.0
785	1864.0
786	1856.0
787	1873.0
788	1907.0
789	1888.0
790	1872.0
791	1828.0
792	1834.0
793	1830.0
794	1839.0
795	1847.0
796	1896.0
797	1881.0
798	1862.0
799	1878.0
800	1869.0
801	1871.0
802	1853.0
803	1851.0
804	1842.0
805	1863.0
806	1890.0
807	1885.0
808	1871.0
809	1854.0
810	1871.0
811	1876.0
812	1912.0
813	1910.0
814	1913.0
815	1877.0
816	1861.0
817	1838.0
818	1816.0
819	1868.0
820	1865.0
821	1875.0
822	1864.0
823	1857.0
824	1855.0
825	1853.0
826	1832.0
827	1860.0
828	1886.0
829	1874.0
830	1879.0
831	1879.0
832	1885.0
833	1888.0
834	1896.0
835	1887.0
836	1894.0
837	1870.0
838	1860.0
839	1859.0
840	1868.0
841	1880.0
842	1857.0
843	1873.0
844	1875.0
845	1909.0
846	1884.0
847	1873.0
848	1847.0
849	1843.0
850	1853.0
851	1848.0
852	1878.0
853	1876.0
854	1879.0
855	1965.0
856	1968.0
857	1914.0
858	1885.0
859	1902.0
860	1901.0
861	1921.0
862	1920.0
863	1921.0
864	1897.0
865	1882.0
866	1852.0
867	1862.0
868	1868.0
869	1847.0
870	1872.0
871	1882.0
872	1860.0
873	1844.0
874	1871.0
875	1867.0
876	1860.0
877	1874.0
878	1870.0
879	1873.0
880	1852.0
881	1856.0
882	1852.0
883	1860.0
884	1855.0
885	1872.0
886	1880.0
887	1884.0
888	1888.0
889	1880.0
890	1864.0
891	1852.0
892	1846.0
893	1821.0
894	1831.0
895	1798.0
896	1807.0
897	1840.0
898	1835.0
899	1845.0
900	1847.0
901	1847.0
902	1832.0
903	1855.0
904	1868.0
905	1890.0
906	1905.0
907	1884.0
908	1898.0
909	1877.0
910	1863.0
911	1871.0
912	1892.0
913	1877.0
914	1886.0
915	1881.0
916	1896.0
917	1940.0
918	1948.0
919	1891.0
920	1854.0
921	1842.0
922	1833.0
923	1858.0
924	1860.0
925	1852.0
926	1853.0
927	1849.0
928	1848.0
929	1855.0
930	1834.0
931	1796.0
932	1814.0
933	1834.0
934	1861.0
935	1844.0
936	1854.0
937	1872.0
938	1905.0
939	1868.0
940	1839.0
941	1846.0
942	1870.0
943	1905.0
944	1868.0
945	1879.0
946	1887.0
947	1892.0
948	1882.0
949	1877.0
950	1898.0
951	1872.0
952	1874.0
953	1860.0
954	1864.0
955	1863.0
956	1869.0
957	1859.0
958	1853.0
959	1839.0
960	1814.0
961	1830.0
962	1851.0
963	1855.0
964	1852.0
965	1848.0
966	1854.0
967	1880.0
968	1904.0
969	1877.0
970	1882.0
971	1872.0
972	1876.0
973	1871.0
974	1893.0
975	1881.0
976	1900.0
977	1904.0
978	1878.0
979	1872.0
980	1856.0
981	1858.0
982	1859.0
983	1951.0
984	1958.0
985	1920.0
986	1871.0
987	1845.0
988	1838.0
989	1862.0
990	1866.0
991	1834.0
992	1836.0
993	1842.0
994	1847.0
995	1840.0
996	1834.0
997	1834.0
998	1844.0
999	1866.0
1000	1850.0
1001	1859.0
1002	1857.0
1003	1874.0
1004	1858.0
1005	1879.0
1006	1852.0
1007	1871.0
1008	1868.0
1009	1876.0
1010	1889.0
1011	1878.0
1012	1879.0
1013	1858.0
1014	1863.0
1015	1873.0
1016	1895.0
1017	1903.0
1018	1893.0
1019	1898.0
1020	1888.0
1021	1893.0
1022	1891.0
1023	1915.0
1024	1924.0
1025	1929.0
1026	1890.0
1027	1880.0
1028	1886.0
1029	1873.0
1030	1873.0
1031	1877.0
1032	1906.0
1033	1913.0
1034	1918.0
1035	1915.0
1036	1922.0
1037	1911.0
1038	1927.0
1039	1954.0
1040	1910.0
1041	1940.0
1042	1956.0
1043	1961.0
1044	1926.0
1045	1932.0
1046	1921.0
1047	1962.0
1048	1959.0
1049	1908.0
1050	1918.0
1051	1945.0
1052	1954.0
1053	1940.0
1054	1933.0
1055	1915.0
1056	1916.0
1057	1889.0
1058	1879.0
1059	1903.0
1060	1944.0
1061	1964.0
1062	1971.0
1063	1956.0
1064	1911.0
1065	1934.0
1066	1905.0
1067	1921.0
1068	1914.0
1069	1916.0
1070	1948.0
1071	1941.0
1072	1940.0
1073	1937.0
1074	1940.0
1075	1908.0
1076	1890.0
1077	1876.0
1078	1900.0
1079	1912.0
1080	1919.0
1081	1924.0
1082	1908.0
1083	1896.0
1084	1899.0
1085	1955.0
1086	1951.0
1087	1949.0
1088	1963.0
1089	1944.0
1090	1925.0
1091	1946.0
1092	1981.0
1093	1960.0
1094	1978.0
1095	1971.0
1096	1960.0
1097	1972.0
1098	1986.0
1099	1968.0
1100	1966.0
1101	2031.0
1102	2021.0
1103	1972.0
1104	1942.0
1105	1925.0
1106	1897.0
1107	1926.0
1108	1932.0
1109	1936.0
1110	1972.0
1111	1959.0
1112	1958.0
1113	1942.0
1114	1902.0
1115	1877.0
1116	1951.0
1117	1974.0
1118	1961.0
1119	1942.0
1120	1940.0
1121	1944.0
1122	1947.0
1123	1949.0
1124	1926.0
1125	1933.0
1126	1947.0
1127	1966.0
1128	1980.0
1129	1936.0
1130	1940.0
1131	1928.0
1132	1930.0
1133	1921.0
1134	1902.0
1135	1915.0
1136	1926.0
1137	1944.0
1138	1983.0
1139	1971.0
1140	1941.0
1141	1970.0
1142	1991.0
1143	1973.0
1144	1957.0
1145	1988.0
1146	1966.0
1147	1960.0
1148	1964.0
1149	1963.0
1150	1931.0
1151	1920.0
1152	1952.0
1153	1953.0
1154	1961.0
1155	1943.0
1156	1959.0
1157	1931.0
1158	1910.0
1159	1936.0
1160	1949.0
1161	1935.0
1162	1952.0
1163	1953.0
1164	1928.0
1165	1935.0
1166	1912.0
1167	1927.0
1168	1932.0
1169	1930.0
1170	1918.0
1171	1928.0
1172	1944.0
1173	1943.0
1174	1985.0
1175	1986.0
1176	1969.0
1177	1953.0
1178	1970.0
1179	1964.0
1180	1936.0
1181	1941.0
1182	1919.0
1183	1968.0
1184	1980.0
1185	1988.0
1186	1954.0
1187	1953.0
1188	1943.0
1189	1953.0
1190	1985.0
1191	1961.0
1192	1963.0
1193	1961.0
1194	1959.0
1195	1967.0
1196	1983.0
1197	1963.0
1198	1983.0
1199	1993.0
1200	1962.0
1201	1969.0
1202	1992.0
1203	2005.0
1204	1963.0
1205	1970.0
1206	1967.0
1207	1954.0
1208	1970.0
1209	1997.0
1210	1964.0
1211	1932.0
1212	1943.0
1213	1965.0
1214	1947.0
1215	1944.0
1216	1967.0
1217	1956.0
1218	1975.0
1219	1965.0
1220	1959.0
1221	1976.0
1222	1957.0
1223	1956.0
1224	1949.0
1225	1935.0
1226	1926.0
1227	1944.0
1228	1919.0
1229	1949.0
1230	1956.0
1231	1963.0
1232	1977.0
1233	1947.0
1234	1971.0
1235	1959.0
1236	1953.0
1237	1928.0
1238	1935.0
1239	1942.0
1240	1947.0
1241	1959.0
1242	1965.0
1243	1961.0
1244	1952.0
1245	1947.0
1246	1951.0
1247	1971.0
1248	1957.0
1249	1954.0
1250	1965.0
1251	1937.0
1252	1919.0
1253	1907.0
1254	1935.0
1255	1957.0
1256	1959.0
1257	1929.0
1258	1938.0
1259	1948.0
1260	1953.0
1261	1953.0
1262	1935.0
1263	1927.0
1264	1923.0
1265	1922.0
1266	1911.0
1267	1922.0
1268	1936.0
1269	1925.0
1270	1899.0
1271	1877.0
1272	1905.0
1273	1896.0
1274	1891.0
1275	1887.0
1276	1930.0
1277	1945.0
1278	1943.0
1279	1895.0
1280	1863.0
1281	1861.0
1282	1860.0
1283	1856.0
1284	1841.0
1285	1863.0
1286	1871.0
1287	1882.0
1288	1891.0
1289	1904.0
1290	1899.0
1291	1874.0
1292	1862.0
1293	1846.0
1294	1868.0
1295	1891.0
1296	1885.0
1297	1878.0
1298	1892.0
1299	1896.0
1300	1883.0
1301	1876.0
1302	1877.0
1303	1839.0
1304	1836.0
1305	1869.0
1306	1863.0
1307	1856.0
1308	1847.0
1309	1860.0
1310	1852.0
1311	1821.0
1312	1823.0
1313	1848.0
1314	1838.0
1315	1825.0
1316	1845.0
1317	1827.0
1318	1850.0
1319	1862.0
1320	1851.0
1321	1850.0
1322	1878.0
1323	1886.0
1324	1869.0
1325	1880.0
1326	1878.0
1327	1877.0
1328	1859.0
1329	1866.0
1330	1847.0
1331	1870.0
1332	1865.0
1333	1848.0
1334	1876.0
1335	1864.0
1336	1852.0
1337	1848.0
1338	1844.0
1339	1890.0
1340	1917.0
1341	1911.0
1342	1872.0
1343	1918.0
1344	1956.0
1345	1953.0
1346	1911.0
1347	1932.0
1348	1931.0
1349	1944.0
1350	1908.0
1351	1862.0
1352	1878.0
1353	1879.0
1354	1873.0
1355	1862.0
1356	1860.0
1357	1893.0
1358	1871.0
1359	1862.0
1360	1897.0
1361	1890.0
1362	1897.0
1363	1899.0
1364	1893.0
1365	1888.0
1366	1890.0
1367	1939.0
1368	1918.0
1369	1913.0
1370	1893.0
1371	1885.0
1372	1884.0
1373	1857.0
1374	1843.0
1375	1856.0
1376	1879.0
1377	1858.0
1378	1865.0
1379	1869.0
1380	1907.0
1381	1914.0
1382	1901.0
1383	1886.0
1384	1896.0
1385	1895.0
1386	1856.0
1387	1871.0
1388	1867.0
1389	1855.0
1390	1850.0
1391	1857.0
1392	1872.0
1393	1886.0
1394	1895.0
1395	1867.0
1396	1893.0
1397	1886.0
1398	1883.0
1399	1867.0
1400	1979.0
1401	1989.0
1402	1937.0
1403	1919.0
1404	1922.0
1405	1923.0
1406	1917.0
1407	2066.0
1408	2072.0
1409	1967.0
1410	1920.0
1411	1887.0
1412	1867.0
1413	1864.0
1414	1896.0
1415	1896.0
1416	1903.0
1417	1890.0
1418	1881.0
1419	1864.0
1420	1863.0
1421	1862.0
1422	1850.0
1423	1873.0
1424	1891.0
1425	1899.0
1426	1884.0
1427	1885.0
1428	1879.0
1429	1887.0
1430	1893.0
1431	1902.0
1432	1915.0
1433	1875.0
1434	1875.0
1435	1875.0
1436	1904.0
1437	1903.0
1438	1885.0
1439	1875.0
1440	1881.0
1441	1874.0
1442	1865.0
1443	1866.0
1444	1851.0
1445	1848.0
1446	1837.0
1447	1860.0
1448	1863.0
1449	1892.0
1450	1895.0
1451	1856.0
1452	1824.0
1453	1866.0
1454	1902.0
1455	1891.0
1456	1890.0
1457	1874.0
1458	1887.0
1459	1931.0
1460	1938.0
1461	1906.0
1462	1869.0
1463	1858.0
1464	1855.0
1465	1859.0
1466	1858.0
1467	1895.0
1468	1899.0
1469	1907.0
1470	1895.0
1471	1886.0
1472	1875.0
1473	1871.0
1474	1852.0
1475	1823.0
1476	1837.0
1477	1858.0
1478	1873.0
1479	1864.0
1480	1855.0
1481	1832.0
1482	1826.0
1483	1831.0
1484	1852.0
1485	1894.0
1486	1856.0
1487	1853.0
1488	1843.0
1489	1852.0
1490	1858.0
1491	1861.0
1492	1853.0
1493	1832.0
1494	1839.0
1495	1853.0
1496	1868.0
1497	1850.0
1498	1861.0
1499	1846.0
1500	1836.0
1501	1834.0
1502	1856.0
1503	1900.0
1504	1876.0
1505	1880.0
1506	1897.0
1507	1922.0
1508	1914.0
1509	1896.0
1510	1870.0
1511	1873.0
1512	1887.0
1513	1891.0
1514	1871.0
1515	1845.0
1516	1834.0
1517	1838.0
1518	1866.0
1519	1862.0
1520	1862.0
1521	1841.0
1522	1856.0
1523	1868.0
1524	1859.0
1525	1882.0
1526	1885.0
1527	1900.0
1528	1900.0
1529	1898.0
1530	1865.0
1531	1883.0
1532	1892.0
1533	1866.0
1534	1854.0
1535	1883.0
1536	1909.0
1537	1871.0
1538	1860.0
1539	1829.0
1540	1839.0
1541	1837.0
1542	1839.0
1543	1858.0
1544	1840.0
1545	1836.0
1546	1838.0
1547	1838.0
1548	1810.0
1549	1842.0
1550	1862.0
1551	1858.0
1552	1841.0
1553	1827.0
1554	1863.0
1555	1857.0
1556	1863.0
1557	1851.0
1558	1881.0
1559	1855.0
1560	1849.0
1561	1843.0
1562	1847.0
1563	1875.0
1564	1855.0
1565	1860.0
1566	1866.0
1567	1876.0
1568	1858.0
1569	1856.0
1570	1859.0
1571	1875.0
1572	1865.0
1573	1819.0
1574	1820.0
1575	1812.0
1576	1831.0
1577	1851.0
1578	1881.0
1579	1887.0
1580	1904.0
1581	1908.0
1582	1889.0
1583	1878.0
1584	1885.0
1585	1896.0
1586	1859.0
1587	1874.0
1588	1910.0
1589	1919.0
1590	1915.0
1591	1925.0
1592	1928.0
1593	1890.0
1594	1892.0
1595	1884.0
1596	1855.0
1597	1818.0
1598	1818.0
1599	1813.0
1600	1849.0
1601	1867.0
1602	1895.0
1603	1887.0
1604	1872.0
1605	1868.0
1606	1869.0
1607	1875.0
1608	1836.0
1609	1847.0
1610	1859.0
1611	1869.0
1612	1880.0
1613	1869.0
1614	1871.0
1615	1879.0
1616	1917.0
1617	1917.0
1618	1903.0
1619	1887.0
1620	1890.0
1621	1861.0
1622	1844.0
1623	1848.0
1624	1827.0
1625	1827.0
1626	1826.0
1627	1830.0
1628	1840.0
1629	1870.0
1630	1866.0
1631	1897.0
1632	1911.0
1633	1903.0
1634	1908.0
1635	1870.0
1636	1874.0
1637	1893.0
1638	1905.0
1639	1871.0
1640	1881.0
1641	1881.0
1642	1872.0
1643	1868.0
1644	1824.0
1645	1830.0
1646	1846.0
1647	1873.0
1648	1852.0
1649	1840.0
1650	1834.0
1651	1871.0
1652	1868.0
1653	1842.0
1654	1840.0
1655	1839.0
1656	1854.0
1657	1870.0
1658	1877.0
1659	1892.0
1660	1897.0
1661	1891.0
1662	1862.0
1663	1889.0
1664	1889.0
1665	1856.0
1666	1836.0
1667	1860.0
1668	1865.0
1669	1861.0
1670	1855.0
1671	1866.0
1672	1862.0
1673	1874.0
1674	1870.0
1675	1853.0
1676	1855.0
1677	1842.0
1678	1843.0
1679	1838.0
1680	1864.0
1681	1850.0
1682	1850.0
1683	1829.0
1684	1812.0
1685	1812.0
1686	1838.0
1687	1865.0
1688	1864.0
1689	1875.0
1690	1852.0
1691	1876.0
1692	1884.0
1693	1867.0
1694	1880.0
1695	1887.0
1696	1878.0
1697	1860.0
1698	1880.0
1699	1869.0
1700	1863.0
1701	1831.0
1702	1849.0
1703	1882.0
1704	1903.0
1705	1911.0
1706	1918.0
1707	1910.0
1708	1881.0
1709	1867.0
1710	1846.0
1711	1826.0
1712	1844.0
1713	1861.0
1714	1875.0
1715	1864.0
1716	1883.0
1717	1909.0
1718	1926.0
1719	1895.0
1720	1890.0
1721	1905.0
1722	1906.0
1723	1916.0
1724	1874.0
1725	1863.0
1726	1884.0
1727	1867.0
1728	1854.0
1729	1883.0
1730	1895.0
1731	1932.0
1732	1929.0
1733	1897.0
1734	1911.0
1735	1922.0
1736	1921.0
1737	1866.0
1738	1850.0
1739	1844.0
1740	1863.0
1741	1860.0
1742	1864.0
1743	1864.0
1744	1860.0
1745	1872.0
1746	1869.0
1747	1903.0
1748	1908.0
1749	1886.0
1750	1880.0
1751	1895.0
1752	1884.0
1753	1892.0
1754	1882.0
1755	1870.0
1756	1852.0
1757	1851.0
1758	1881.0
1759	1856.0
1760	1852.0
1761	1844.0
1762	1857.0
1763	1860.0
1764	1853.0
1765	1890.0
1766	1889.0
1767	1925.0
1768	1907.0
1769	1894.0
1770	1876.0
1771	1886.0
1772	1869.0
1773	1861.0
1774	1861.0
1775	1866.0
1776	1882.0
1777	1863.0
1778	1889.0
1779	1883.0
1780	1853.0
1781	1824.0
1782	1819.0
1783	1833.0
1784	1842.0
1785	1870.0
1786	1852.0
1787	1866.0
1788	1879.0
1789	1902.0
1790	1869.0
1791	1859.0
1792	1853.0
1793	1871.0
1794	1865.0
1795	1827.0
1796	1836.0
1797	1874.0
1798	1870.0
1799	1843.0
1800	1868.0
1801	1887.0
1802	1882.0
1803	1857.0
1804	1824.0
1805	1840.0
1806	1845.0
1807	1847.0
1808	1825.0
1809	1859.0
1810	1856.0
1811	1866.0
1812	1891.0
1813	1872.0
1814	1897.0
1815	1896.0
1816	1881.0
1817	1848.0
1818	1834.0
1819	1808.0
1820	1832.0
1821	1843.0
1822	1889.0
1823	1889.0
1824	1853.0
1825	1840.0
1826	1828.0
1827	1856.0
1828	1884.0
1829	1873.0
1830	1836.0
1831	1874.0
1832	1870.0
1833	1839.0
1834	1832.0
1835	1826.0
1836	1864.0
1837	1877.0
1838	1880.0
1839	1859.0
1840	1874.0
1841	1873.0
1842	1896.0
1843	1882.0
1844	1883.0
1845	1893.0
1846	1878.0
1847	1863.0
1848	1854.0
1849	1879.0
1850	1897.0
1851	1913.0
1852	1897.0
1853	1872.0
1854	1853.0
1855	1871.0
1856	1876.0
1857	1856.0
1858	1885.0
1859	1899.0
1860	1893.0
1861	1880.0
1862	1877.0
1863	1874.0
1864	1876.0
1865	1853.0
1866	1839.0
1867	1850.0
1868	1858.0
1869	1880.0
1870	1854.0
1871	1860.0
1872	1878.0
1873	1877.0
1874	1874.0
1875	1848.0
1876	1869.0
1877	1883.0
1878	1862.0
1879	1823.0
1880	1857.0
1881	1876.0
1882	1882.0
1883	1866.0
1884	1838.0
1885	1846.0
1886	1856.0
1887	1880.0
1888	1881.0
1889	1878.0
1890	1883.0
1891	1853.0
1892	1827.0
1893	1801.0
1894	1808.0
1895	1814.0
1896	1839.0
1897	1862.0
1898	1863.0
1899	1848.0
1900	1978.0
1901	2001.0
1902	1926.0
1903	1907.0
1904	1900.0
1905	1873.0
1906	1859.0
1907	1883.0
1908	1870.0
1909	1887.0
1910	1892.0
1911	1885.0
1912	1872.0
1913	1863.0
1914	1842.0
1915	1844.0
1916	1858.0
1917	1855.0
1918	1867.0
1919	1874.0
1920	1885.0
1921	1842.0
1922	1830.0
1923	1839.0
1924	1869.0
1925	1871.0
1926	1851.0
1927	1878.0
1928	1880.0
1929	1885.0
1930	1859.0
1931	1854.0
1932	1860.0
1933	1878.0
1934	1883.0
1935	1904.0
1936	1943.0
1937	1919.0
1938	1901.0
1939	1865.0
1940	1866.0
1941	1876.0
1942	1876.0
1943	1865.0
1944	1854.0
1945	1883.0
1946	1918.0
1947	1910.0
1948	1835.0
1949	1843.0
1950	1843.0
1951	1886.0
1952	1890.0
1953	1900.0
1954	1894.0
1955	1858.0
1956	1862.0
1957	1844.0
1958	1846.0
1959	1863.0
1960	1892.0
1961	1875.0
1962	1882.0
1963	1880.0
1964	1877.0
1965	1891.0
1966	1885.0
1967	1878.0
1968	1871.0
1969	1877.0
1970	1863.0
1971	1856.0
1972	1848.0
1973	1839.0
1974	1857.0
1975	1848.0
1976	1871.0
1977	1872.0
1978	1877.0
1979	1847.0
1980	1852.0
1981	1844.0
1982	1830.0
1983	1829.0
1984	1844.0
1985	1838.0
1986	1820.0
1987	1827.0
1988	1815.0
1989	1849.0
1990	1868.0
1991	1863.0
1992	1857.0
1993	1845.0
1994	1860.0
1995	1855.0
1996	1870.0
1997	1876.0
1998	1858.0
1999	1823.0
2000	1860.0
2001	1894.0
2002	1920.0
2003	1885.0
2004	1836.0
2005	1842.0
2006	1852.0
2007	1866.0
2008	1837.0
2009	1814.0
2010	1834.0
2011	1855.0
2012	1864.0
2013	1884.0
2014	1876.0
2015	1862.0
2016	1866.0
2017	1825.0
2018	1823.0
2019	1816.0
2020	1838.0
2021	1850.0
2022	1869.0
2023	1891.0
2024	1903.0
2025	1890.0
2026	1963.0
2027	2051.0
2028	2009.0
2029	1994.0
2030	1951.0
2031	1900.0
2032	1879.0
2033	1922.0
2034	1955.0
2035	1910.0
2036	1905.0
2037	1895.0
2038	1910.0
2039	1884.0
2040	1897.0
2041	1871.0
2042	1873.0
2043	1866.0
2044	1803.0
2045	1831.0
2046	1852.0
2047	1855.0
