================================================================================
RAMAN SPECTROMETER DEBUG LOG
Timestamp: 2026-01-19T15:52:24.365040
================================================================================

--- CONFIGURATION ---
Port: /dev/ttyUSB0
Baudrate: 9600
Integration time: 200 ms
Timeout: 10.0 s
Expected data points: 2048
Min data points: 2048

--- RAW DATA INFO ---
Total bytes received: 14370
Null bytes count: 1

--- RAW BYTES (first 500, hex) ---
61 0d 0a 41 43 4b 0d 0a 0d 0a 49 32 30 30 0d 0a 
41 43 4b 0d 0a 0d 0a 53 0d 0a 41 43 4b 0d 0a 30 
31 37 37 39 0d 0a 30 31 37 39 37 0d 0a 30 31 38 
30 35 0d 0a 30 31 37 37 39 0d 0a 30 31 37 38 35 
0d 0a 30 31 37 38 35 0d 0a 30 31 38 31 31 0d 0a 
30 31 38 31 34 0d 0a 30 31 37 37 39 0d 0a 30 31 
37 35 36 0d 0a 30 31 37 36 35 0d 0a 30 31 37 36 
34 0d 0a 30 31 37 35 32 0d 0a 30 31 37 37 36 0d 
0a 30 31 37 38 36 0d 0a 30 31 38 31 39 0d 0a 30 
31 38 32 34 0d 0a 30 31 38 32 35 0d 0a 30 31 38 
34 39 0d 0a 30 31 38 34 34 0d 0a 30 31 38 33 32 
0d 0a 30 31 38 30 30 0d 0a 30 31 38 30 31 0d 0a 
30 31 38 31 36 0d 0a 30 31 38 32 35 0d 0a 30 31 
37 39 30 0d 0a 30 31 38 30 31 0d 0a 30 31 38 30 
39 0d 0a 30 31 38 30 30 0d 0a 30 31 38 30 39 0d 
0a 30 31 38 35 30 0d 0a 30 31 38 35 36 0d 0a 30 
31 38 34 38 0d 0a 30 31 38 34 35 0d 0a 30 31 38 
32 34 0d 0a 30 31 38 33 34 0d 0a 30 31 38 32 36 
0d 0a 30 31 38 31 31 0d 0a 30 31 38 30 32 0d 0a 
30 31 37 39 35 0d 0a 30 31 38 31 35 0d 0a 30 31 
38 31 34 0d 0a 30 31 38 31 32 0d 0a 30 31 38 31 
33 0d 0a 30 31 38 37 38 0d 0a 30 31 38 38 30 0d 
0a 30 31 38 34 36 0d 0a 30 31 38 32 39 0d 0a 30 
31 38 31 38 0d 0a 30 31 38 33 38 0d 0a 30 31 38 
31 30 0d 0a 30 31 38 30 31 0d 0a 30 31 37 39 37 
0d 0a 30 31 38 31 35 0d 0a 30 31 38 32 35 0d 0a 
30 31 38 33 39 0d 0a 30 31 38 33 31 0d 0a 30 31 
38 35 35 0d 0a 30 31 38 37 32 0d 0a 30 31 38 35 
32 0d 0a 30 31 38 34 32 0d 0a 30 31 38 32 32 0d 
0a 30 31 38 34 33 0d 0a 30 31 38 33 36 0d 0a 30 
31 38 30 30 0d 0a 30 31 38 32 32 0d 0a 30 31 38 
36 30 0d 0a

--- RAW DATA AS STRING (first 1000 chars) ---
a
ACK

I200
ACK

S
ACK
01779
01797
01805
01779
01785
01785
01811
01814
01779
01756
01765
01764
01752
01776
01786
01819
01824
01825
01849
01844
01832
01800
01801
01816
01825
01790
01801
01809
01800
01809
01850
01856
01848
01845
01824
01834
01826
01811
01802
01795
01815
01814
01812
01813
01878
01880
01846
01829
01818
01838
01810
01801
01797
01815
01825
01839
01831
01855
01872
01852
01842
01822
01843
01836
01800
01822
01860
01868
01852
01842
01826
01838
01853
01852
01843
01823
01826
01822
01824
01807
01806
01801
01828
01845
02086
02141
01994
01948
01885
01830
01821
01860
01894
01908
01874
01847
01860
01844
01837
01861
01869
01851
01840
01848
01834
01842
01817
01811
01832
01841
01810
01801
01802
01800
01778
01775
01780
01757
01788
01796
01773
01777
01808
01848
01820
01837
01845
01833
01802
01811
01798
01802
01828
01837
01876
01867
01860
01819
018

--- PARSED VALUES ---
Total parsed values: 2048
Min value: 1752.0
Max value: 2141.0
Mean value: 1843.816
Saturated values (>=65535): 0
First 20 values: [1779.0, 1797.0, 1805.0, 1779.0, 1785.0, 1785.0, 1811.0, 1814.0, 1779.0, 1756.0, 1765.0, 1764.0, 1752.0, 1776.0, 1786.0, 1819.0, 1824.0, 1825.0, 1849.0, 1844.0]
Last 20 values: [1914.0, 1885.0, 1871.0, 1858.0, 1823.0, 1880.0, 1890.0, 1858.0, 1833.0, 1847.0, 1882.0, 1886.0, 1888.0, 1869.0, 1863.0, 1839.0, 1822.0, 1837.0, 1830.0, 1821.0]

--- FULL SPECTRUM DATA (one value per line) ---
0	1779.0
1	1797.0
2	1805.0
3	1779.0
4	1785.0
5	1785.0
6	1811.0
7	1814.0
8	1779.0
9	1756.0
10	1765.0
11	1764.0
12	1752.0
13	1776.0
14	1786.0
15	1819.0
16	1824.0
17	1825.0
18	1849.0
19	1844.0
20	1832.0
21	1800.0
22	1801.0
23	1816.0
24	1825.0
25	1790.0
26	1801.0
27	1809.0
28	1800.0
29	1809.0
30	1850.0
31	1856.0
32	1848.0
33	1845.0
34	1824.0
35	1834.0
36	1826.0
37	1811.0
38	1802.0
39	1795.0
40	1815.0
41	1814.0
42	1812.0
43	1813.0
44	1878.0
45	1880.0
46	1846.0
47	1829.0
48	1818.0
49	1838.0
50	1810.0
51	1801.0
52	1797.0
53	1815.0
54	1825.0
55	1839.0
56	1831.0
57	1855.0
58	1872.0
59	1852.0
60	1842.0
61	1822.0
62	1843.0
63	1836.0
64	1800.0
65	1822.0
66	1860.0
67	1868.0
68	1852.0
69	1842.0
70	1826.0
71	1838.0
72	1853.0
73	1852.0
74	1843.0
75	1823.0
76	1826.0
77	1822.0
78	1824.0
79	1807.0
80	1806.0
81	1801.0
82	1828.0
83	1845.0
84	2086.0
85	2141.0
86	1994.0
87	1948.0
88	1885.0
89	1830.0
90	1821.0
91	1860.0
92	1894.0
93	1908.0
94	1874.0
95	1847.0
96	1860.0
97	1844.0
98	1837.0
99	1861.0
100	1869.0
101	1851.0
102	1840.0
103	1848.0
104	1834.0
105	1842.0
106	1817.0
107	1811.0
108	1832.0
109	1841.0
110	1810.0
111	1801.0
112	1802.0
113	1800.0
114	1778.0
115	1775.0
116	1780.0
117	1757.0
118	1788.0
119	1796.0
120	1773.0
121	1777.0
122	1808.0
123	1848.0
124	1820.0
125	1837.0
126	1845.0
127	1833.0
128	1802.0
129	1811.0
130	1798.0
131	1802.0
132	1828.0
133	1837.0
134	1876.0
135	1867.0
136	1860.0
137	1819.0
138	1825.0
139	1835.0
140	1826.0
141	1910.0
142	1915.0
143	1882.0
144	1864.0
145	1852.0
146	1831.0
147	1848.0
148	1866.0
149	1879.0
150	1879.0
151	1842.0
152	1839.0
153	1846.0
154	1854.0
155	1860.0
156	1852.0
157	1816.0
158	1804.0
159	1839.0
160	1835.0
161	1873.0
162	1888.0
163	1879.0
164	1860.0
165	1858.0
166	1823.0
167	1820.0
168	1839.0
169	1860.0
170	1853.0
171	1821.0
172	1838.0
173	1829.0
174	1836.0
175	1839.0
176	1836.0
177	1810.0
178	1766.0
179	1803.0
180	1810.0
181	1834.0
182	1831.0
183	1842.0
184	1844.0
185	1840.0
186	1838.0
187	1856.0
188	1870.0
189	1882.0
190	1900.0
191	1864.0
192	1834.0
193	1818.0
194	1815.0
195	1844.0
196	1859.0
197	1885.0
198	1875.0
199	1878.0
200	1862.0
201	1838.0
202	1836.0
203	1862.0
204	1873.0
205	1836.0
206	1816.0
207	1822.0
208	1826.0
209	1793.0
210	1807.0
211	1832.0
212	1866.0
213	1865.0
214	1872.0
215	1867.0
216	1831.0
217	1843.0
218	1819.0
219	1808.0
220	1828.0
221	1837.0
222	1834.0
223	1812.0
224	1812.0
225	1833.0
226	1843.0
227	1824.0
228	1842.0
229	1828.0
230	1817.0
231	1811.0
232	1811.0
233	1848.0
234	1848.0
235	1852.0
236	1851.0
237	1848.0
238	1823.0
239	1844.0
240	1836.0
241	1910.0
242	1929.0
243	1896.0
244	1874.0
245	1813.0
246	1831.0
247	1897.0
248	1891.0
249	1840.0
250	1861.0
251	1863.0
252	1842.0
253	1821.0
254	1797.0
255	1848.0
256	1851.0
257	1822.0
258	1816.0
259	1846.0
260	1873.0
261	1854.0
262	1835.0
263	1810.0
264	1812.0
265	1873.0
266	1899.0
267	1865.0
268	1877.0
269	1857.0
270	1853.0
271	1847.0
272	1838.0
273	1826.0
274	1835.0
275	1847.0
276	1846.0
277	1828.0
278	1806.0
279	1811.0
280	1807.0
281	1799.0
282	1829.0
283	1830.0
284	1827.0
285	1823.0
286	1875.0
287	1879.0
288	1846.0
289	1840.0
290	1839.0
291	1834.0
292	1844.0
293	1832.0
294	1811.0
295	1821.0
296	1843.0
297	1859.0
298	1843.0
299	1823.0
300	1842.0
301	1854.0
302	1864.0
303	1832.0
304	1852.0
305	1823.0
306	1842.0
307	1843.0
308	1834.0
309	1847.0
310	1864.0
311	1874.0
312	1839.0
313	1826.0
314	1828.0
315	1834.0
316	1835.0
317	1834.0
318	1812.0
319	1787.0
320	1791.0
321	1778.0
322	1789.0
323	1788.0
324	1819.0
325	1838.0
326	1824.0
327	1812.0
328	1808.0
329	1831.0
330	1810.0
331	1811.0
332	1798.0
333	1793.0
334	1791.0
335	1842.0
336	1856.0
337	1837.0
338	1815.0
339	1821.0
340	1844.0
341	1831.0
342	1829.0
343	1812.0
344	1829.0
345	1834.0
346	1831.0
347	1855.0
348	1842.0
349	1848.0
350	1833.0
351	1847.0
352	1810.0
353	1794.0
354	1798.0
355	1819.0
356	1839.0
357	1813.0
358	1820.0
359	1832.0
360	1873.0
361	1860.0
362	1837.0
363	1808.0
364	1813.0
365	1842.0
366	1831.0
367	1852.0
368	1836.0
369	1804.0
370	1783.0
371	1814.0
372	1828.0
373	1825.0
374	1806.0
375	1779.0
376	1812.0
377	1821.0
378	1815.0
379	1772.0
380	1795.0
381	1807.0
382	1822.0
383	1826.0
384	1787.0
385	1789.0
386	1804.0
387	1832.0
388	1799.0
389	1815.0
390	1826.0
391	1862.0
392	1886.0
393	1821.0
394	1791.0
395	1789.0
396	1825.0
397	1827.0
398	1826.0
399	1803.0
400	1804.0
401	1805.0
402	1795.0
403	1807.0
404	1812.0
405	1839.0
406	1842.0
407	1837.0
408	1837.0
409	1841.0
410	1849.0
411	1820.0
412	1797.0
413	1814.0
414	1824.0
415	1808.0
416	1836.0
417	1847.0
418	1833.0
419	1821.0
420	1799.0
421	1828.0
422	1861.0
423	1870.0
424	1871.0
425	1866.0
426	1832.0
427	1843.0
428	1858.0
429	1867.0
430	1872.0
431	1868.0
432	1866.0
433	1842.0
434	1823.0
435	1816.0
436	1820.0
437	1839.0
438	1814.0
439	1796.0
440	1850.0
441	1860.0
442	1817.0
443	1838.0
444	1856.0
445	1890.0
446	1875.0
447	1865.0
448	1839.0
449	1825.0
450	1829.0
451	1820.0
452	1814.0
453	1826.0
454	1839.0
455	1844.0
456	1865.0
457	1850.0
458	1869.0
459	1891.0
460	1870.0
461	1873.0
462	1866.0
463	1850.0
464	1846.0
465	1865.0
466	1847.0
467	1845.0
468	1805.0
469	1780.0
470	1801.0
471	1804.0
472	1820.0
473	1814.0
474	1844.0
475	1845.0
476	1815.0
477	1795.0
478	1798.0
479	1822.0
480	1825.0
481	1836.0
482	1821.0
483	1858.0
484	1877.0
485	1889.0
486	1885.0
487	1843.0
488	1832.0
489	1836.0
490	1824.0
491	1811.0
492	1846.0
493	1859.0
494	1856.0
495	1844.0
496	1842.0
497	1851.0
498	1854.0
499	1862.0
500	1846.0
501	1842.0
502	1822.0
503	1829.0
504	1815.0
505	1815.0
506	1820.0
507	1811.0
508	1830.0
509	1796.0
510	1790.0
511	1813.0
512	1855.0
513	1877.0
514	1869.0
515	1834.0
516	1813.0
517	1840.0
518	1844.0
519	1863.0
520	1868.0
521	1875.0
522	1839.0
523	1835.0
524	1844.0
525	1841.0
526	1843.0
527	1831.0
528	1820.0
529	1812.0
530	1826.0
531	1818.0
532	1817.0
533	1804.0
534	1788.0
535	1819.0
536	1822.0
537	1832.0
538	1797.0
539	1797.0
540	1788.0
541	1813.0
542	1826.0
543	1806.0
544	1804.0
545	1791.0
546	1812.0
547	1805.0
548	1795.0
549	1795.0
550	1825.0
551	1828.0
552	1817.0
553	1816.0
554	1800.0
555	1807.0
556	1798.0
557	1803.0
558	1821.0
559	1861.0
560	1872.0
561	1862.0
562	1850.0
563	1820.0
564	1816.0
565	1802.0
566	1818.0
567	1819.0
568	1829.0
569	1824.0
570	1820.0
571	1827.0
572	1795.0
573	1824.0
574	1831.0
575	1831.0
576	1823.0
577	1833.0
578	1825.0
579	1831.0
580	1833.0
581	1812.0
582	1818.0
583	1813.0
584	1851.0
585	1837.0
586	1831.0
587	1830.0
588	1840.0
589	1821.0
590	1790.0
591	1830.0
592	1850.0
593	1874.0
594	1842.0
595	1818.0
596	1836.0
597	1846.0
598	1854.0
599	1831.0
600	1806.0
601	1811.0
602	1823.0
603	1802.0
604	1821.0
605	1842.0
606	1826.0
607	1819.0
608	1807.0
609	1865.0
610	1901.0
611	1856.0
612	1818.0
613	1839.0
614	1874.0
615	1857.0
616	1850.0
617	1828.0
618	1834.0
619	1845.0
620	1862.0
621	1853.0
622	1852.0
623	1843.0
624	1871.0
625	1868.0
626	1853.0
627	1845.0
628	1810.0
629	1807.0
630	1806.0
631	1804.0
632	1816.0
633	1833.0
634	1831.0
635	1831.0
636	1825.0
637	1801.0
638	1925.0
639	1977.0
640	1925.0
641	1880.0
642	1853.0
643	1871.0
644	1886.0
645	1826.0
646	1822.0
647	1848.0
648	1835.0
649	1836.0
650	1826.0
651	1824.0
652	1826.0
653	1836.0
654	1823.0
655	1825.0
656	1816.0
657	1793.0
658	1817.0
659	1810.0
660	1800.0
661	1782.0
662	1819.0
663	1830.0
664	1831.0
665	1852.0
666	1849.0
667	1884.0
668	1891.0
669	1897.0
670	1868.0
671	1842.0
672	1821.0
673	1832.0
674	1821.0
675	1779.0
676	1794.0
677	1832.0
678	1854.0
679	1816.0
680	1850.0
681	1868.0
682	1873.0
683	1845.0
684	1823.0
685	1813.0
686	1820.0
687	1853.0
688	1877.0
689	1879.0
690	1850.0
691	1829.0
692	1813.0
693	1814.0
694	1859.0
695	1847.0
696	1834.0
697	1812.0
698	1866.0
699	1881.0
700	1865.0
701	1844.0
702	1847.0
703	1860.0
704	1866.0
705	1866.0
706	1824.0
707	1808.0
708	1819.0
709	1819.0
710	1836.0
711	1842.0
712	1833.0
713	1836.0
714	1855.0
715	1832.0
716	1815.0
717	1824.0
718	1831.0
719	1822.0
720	1836.0
721	1839.0
722	1836.0
723	1828.0
724	1790.0
725	1832.0
726	1869.0
727	1877.0
728	1854.0
729	1854.0
730	1852.0
731	1829.0
732	1830.0
733	1850.0
734	1902.0
735	1908.0
736	1921.0
737	1889.0
738	1868.0
739	1827.0
740	1820.0
741	1812.0
742	1781.0
743	1773.0
744	1785.0
745	1812.0
746	1823.0
747	1869.0
748	1895.0
749	1881.0
750	1885.0
751	1865.0
752	1855.0
753	1853.0
754	1858.0
755	1832.0
756	1841.0
757	1874.0
758	1888.0
759	1876.0
760	1848.0
761	1842.0
762	1820.0
763	1818.0
764	1819.0
765	1823.0
766	1814.0
767	1802.0
768	1816.0
769	1796.0
770	1822.0
771	1832.0
772	1855.0
773	1870.0
774	1860.0
775	1830.0
776	1830.0
777	1842.0
778	1826.0
779	1829.0
780	1799.0
781	1795.0
782	1796.0
783	1806.0
784	1812.0
785	1808.0
786	1814.0
787	1796.0
788	1820.0
789	1826.0
790	1843.0
791	1851.0
792	1875.0
793	1852.0
794	1843.0
795	1856.0
796	1834.0
797	1820.0
798	1844.0
799	1874.0
800	1855.0
801	1863.0
802	1862.0
803	1839.0
804	1802.0
805	1773.0
806	1799.0
807	1818.0
808	1830.0
809	1815.0
810	1806.0
811	1815.0
812	1877.0
813	1889.0
814	1845.0
815	1845.0
816	1823.0
817	1825.0
818	1830.0
819	1863.0
820	1876.0
821	1859.0
822	1836.0
823	1830.0
824	1840.0
825	1844.0
826	1844.0
827	1828.0
828	1836.0
829	1827.0
830	1821.0
831	1831.0
832	1820.0
833	1829.0
834	1834.0
835	1855.0
836	1830.0
837	1823.0
838	1836.0
839	1835.0
840	1826.0
841	1820.0
842	1831.0
843	1825.0
844	1828.0
845	1852.0
846	1879.0
847	1863.0
848	1812.0
849	1781.0
850	1796.0
851	1801.0
852	1817.0
853	1805.0
854	1777.0
855	1895.0
856	1919.0
857	1888.0
858	1863.0
859	1850.0
860	1856.0
861	1858.0
862	1856.0
863	1821.0
864	1806.0
865	1798.0
866	1806.0
867	1807.0
868	1825.0
869	1802.0
870	1815.0
871	1874.0
872	1866.0
873	1845.0
874	1836.0
875	1845.0
876	1828.0
877	1817.0
878	1800.0
879	1790.0
880	1801.0
881	1808.0
882	1799.0
883	1803.0
884	1824.0
885	1843.0
886	1839.0
887	1801.0
888	1802.0
889	1837.0
890	1829.0
891	1800.0
892	1791.0
893	1801.0
894	1778.0
895	1792.0
896	1778.0
897	1791.0
898	1785.0
899	1796.0
900	1828.0
901	1812.0
902	1791.0
903	1837.0
904	1871.0
905	1836.0
906	1826.0
907	1813.0
908	1835.0
909	1872.0
910	1878.0
911	1880.0
912	1835.0
913	1827.0
914	1828.0
915	1863.0
916	1847.0
917	1919.0
918	1945.0
919	1900.0
920	1876.0
921	1836.0
922	1821.0
923	1826.0
924	1826.0
925	1800.0
926	1808.0
927	1822.0
928	1827.0
929	1843.0
930	1820.0
931	1816.0
932	1804.0
933	1824.0
934	1812.0
935	1828.0
936	1864.0
937	1896.0
938	1902.0
939	1865.0
940	1863.0
941	1842.0
942	1844.0
943	1852.0
944	1832.0
945	1812.0
946	1809.0
947	1822.0
948	1796.0
949	1798.0
950	1803.0
951	1818.0
952	1820.0
953	1845.0
954	1818.0
955	1813.0
956	1839.0
957	1823.0
958	1814.0
959	1807.0
960	1800.0
961	1764.0
962	1780.0
963	1823.0
964	1831.0
965	1838.0
966	1831.0
967	1853.0
968	1817.0
969	1816.0
970	1826.0
971	1846.0
972	1851.0
973	1862.0
974	1894.0
975	1876.0
976	1853.0
977	1834.0
978	1860.0
979	1834.0
980	1820.0
981	1816.0
982	1805.0
983	1876.0
984	1860.0
985	1837.0
986	1808.0
987	1814.0
988	1789.0
989	1793.0
990	1812.0
991	1835.0
992	1833.0
993	1807.0
994	1818.0
995	1830.0
996	1836.0
997	1807.0
998	1803.0
999	1808.0
1000	1826.0
1001	1856.0
1002	1824.0
1003	1816.0
1004	1820.0
1005	1837.0
1006	1809.0
1007	1824.0
1008	1829.0
1009	1840.0
1010	1833.0
1011	1798.0
1012	1834.0
1013	1858.0
1014	1840.0
1015	1814.0
1016	1825.0
1017	1836.0
1018	1824.0
1019	1824.0
1020	1822.0
1021	1841.0
1022	1853.0
1023	1856.0
1024	1810.0
1025	1828.0
1026	1848.0
1027	1853.0
1028	1847.0
1029	1835.0
1030	1856.0
1031	1858.0
1032	1883.0
1033	1886.0
1034	1889.0
1035	1884.0
1036	1873.0
1037	1866.0
1038	1862.0
1039	1860.0
1040	1867.0
1041	1912.0
1042	1912.0
1043	1887.0
1044	1873.0
1045	1878.0
1046	1857.0
1047	1914.0
1048	1917.0
1049	1896.0
1050	1895.0
1051	1882.0
1052	1912.0
1053	1910.0
1054	1877.0
1055	1865.0
1056	1904.0
1057	1909.0
1058	1891.0
1059	1905.0
1060	1916.0
1061	1919.0
1062	1898.0
1063	1902.0
1064	1887.0
1065	1882.0
1066	1869.0
1067	1874.0
1068	1900.0
1069	1917.0
1070	1927.0
1071	1920.0
1072	1913.0
1073	1896.0
1074	1917.0
1075	1906.0
1076	1898.0
1077	1886.0
1078	1858.0
1079	1858.0
1080	1855.0
1081	1861.0
1082	1849.0
1083	1875.0
1084	1881.0
1085	1903.0
1086	1893.0
1087	1883.0
1088	1904.0
1089	1907.0
1090	1934.0
1091	1932.0
1092	1939.0
1093	1901.0
1094	1894.0
1095	1889.0
1096	1892.0
1097	1908.0
1098	1902.0
1099	1904.0
1100	1904.0
1101	2013.0
1102	2000.0
1103	1947.0
1104	1920.0
1105	1888.0
1106	1902.0
1107	1928.0
1108	1921.0
1109	1886.0
1110	1919.0
1111	1921.0
1112	1897.0
1113	1888.0
1114	1881.0
1115	1885.0
1116	1891.0
1117	1927.0
1118	1913.0
1119	1902.0
1120	1889.0
1121	1903.0
1122	1941.0
1123	1948.0
1124	1947.0
1125	1939.0
1126	1966.0
1127	1941.0
1128	1956.0
1129	1954.0
1130	1945.0
1131	1955.0
1132	1918.0
1133	1923.0
1134	1928.0
1135	1937.0
1136	1930.0
1137	1916.0
1138	1900.0
1139	1927.0
1140	1932.0
1141	1948.0
1142	1950.0
1143	1919.0
1144	1922.0
1145	1921.0
1146	1935.0
1147	1944.0
1148	1945.0
1149	1915.0
1150	1940.0
1151	1928.0
1152	1894.0
1153	1889.0
1154	1884.0
1155	1878.0
1156	1870.0
1157	1879.0
1158	1896.0
1159	1914.0
1160	1897.0
1161	1900.0
1162	1914.0
1163	1899.0
1164	1905.0
1165	1903.0
1166	1890.0
1167	1894.0
1168	1924.0
1169	1906.0
1170	1893.0
1171	1896.0
1172	1845.0
1173	1862.0
1174	1916.0
1175	1915.0
1176	1927.0
1177	1969.0
1178	1960.0
1179	1935.0
1180	1940.0
1181	1920.0
1182	1916.0
1183	1917.0
1184	1920.0
1185	1917.0
1186	1914.0
1187	1898.0
1188	1896.0
1189	1918.0
1190	1931.0
1191	1915.0
1192	1905.0
1193	1909.0
1194	1881.0
1195	1902.0
1196	1906.0
1197	1888.0
1198	1897.0
1199	1888.0
1200	1953.0
1201	1940.0
1202	1937.0
1203	1931.0
1204	1938.0
1205	1932.0
1206	1907.0
1207	1878.0
1208	1872.0
1209	1922.0
1210	1900.0
1211	1895.0
1212	1878.0
1213	1897.0
1214	1896.0
1215	1904.0
1216	1921.0
1217	1896.0
1218	1912.0
1219	1895.0
1220	1897.0
1221	1869.0
1222	1880.0
1223	1895.0
1224	1917.0
1225	1917.0
1226	1900.0
1227	1929.0
1228	1934.0
1229	1938.0
1230	1910.0
1231	1926.0
1232	1968.0
1233	1973.0
1234	1937.0
1235	1899.0
1236	1912.0
1237	1928.0
1238	1937.0
1239	1911.0
1240	1918.0
1241	1907.0
1242	1925.0
1243	1934.0
1244	1911.0
1245	1925.0
1246	1949.0
1247	1943.0
1248	1915.0
1249	1892.0
1250	1880.0
1251	1901.0
1252	1923.0
1253	1907.0
1254	1903.0
1255	1908.0
1256	1902.0
1257	1893.0
1258	1902.0
1259	1916.0
1260	1925.0
1261	1920.0
1262	1937.0
1263	1924.0
1264	1902.0
1265	1916.0
1266	1904.0
1267	1891.0
1268	1901.0
1269	1896.0
1270	1867.0
1271	1883.0
1272	1877.0
1273	1868.0
1274	1876.0
1275	1879.0
1276	1906.0
1277	1911.0
1278	1924.0
1279	1903.0
1280	1874.0
1281	1841.0
1282	1863.0
1283	1879.0
1284	1870.0
1285	1868.0
1286	1844.0
1287	1850.0
1288	1836.0
1289	1854.0
1290	1830.0
1291	1799.0
1292	1814.0
1293	1824.0
1294	1841.0
1295	1851.0
1296	1864.0
1297	1874.0
1298	1899.0
1299	1869.0
1300	1831.0
1301	1801.0
1302	1806.0
1303	1826.0
1304	1813.0
1305	1809.0
1306	1808.0
1307	1823.0
1308	1812.0
1309	1806.0
1310	1793.0
1311	1819.0
1312	1844.0
1313	1836.0
1314	1829.0
1315	1826.0
1316	1837.0
1317	1807.0
1318	1797.0
1319	1782.0
1320	1787.0
1321	1813.0
1322	1842.0
1323	1857.0
1324	1855.0
1325	1857.0
1326	1838.0
1327	1848.0
1328	1844.0
1329	1848.0
1330	1864.0
1331	1847.0
1332	1852.0
1333	1849.0
1334	1823.0
1335	1799.0
1336	1789.0
1337	1787.0
1338	1778.0
1339	1855.0
1340	1885.0
1341	1893.0
1342	1890.0
1343	1879.0
1344	1870.0
1345	1878.0
1346	1863.0
1347	1846.0
1348	1830.0
1349	1840.0
1350	1867.0
1351	1847.0
1352	1824.0
1353	1838.0
1354	1857.0
1355	1837.0
1356	1843.0
1357	1894.0
1358	1898.0
1359	1869.0
1360	1860.0
1361	1868.0
1362	1838.0
1363	1830.0
1364	1815.0
1365	1835.0
1366	1834.0
1367	1839.0
1368	1864.0
1369	1842.0
1370	1841.0
1371	1848.0
1372	1852.0
1373	1842.0
1374	1843.0
1375	1844.0
1376	1850.0
1377	1838.0
1378	1819.0
1379	1839.0
1380	1836.0
1381	1842.0
1382	1807.0
1383	1826.0
1384	1835.0
1385	1850.0
1386	1861.0
1387	1816.0
1388	1821.0
1389	1834.0
1390	1853.0
1391	1835.0
1392	1840.0
1393	1837.0
1394	1812.0
1395	1800.0
1396	1777.0
1397	1804.0
1398	1829.0
1399	1825.0
1400	1897.0
1401	1919.0
1402	1856.0
1403	1845.0
1404	1890.0
1405	1884.0
1406	1862.0
1407	1990.0
1408	2020.0
1409	1903.0
1410	1855.0
1411	1830.0
1412	1807.0
1413	1835.0
1414	1830.0
1415	1858.0
1416	1858.0
1417	1860.0
1418	1837.0
1419	1836.0
1420	1826.0
1421	1824.0
1422	1820.0
1423	1812.0
1424	1825.0
1425	1844.0
1426	1870.0
1427	1853.0
1428	1844.0
1429	1822.0
1430	1802.0
1431	1786.0
1432	1779.0
1433	1813.0
1434	1840.0
1435	1854.0
1436	1855.0
1437	1883.0
1438	1876.0
1439	1872.0
1440	1844.0
1441	1814.0
1442	1847.0
1443	1862.0
1444	1879.0
1445	1866.0
1446	1871.0
1447	1851.0
1448	1838.0
1449	1830.0
1450	1817.0
1451	1837.0
1452	1832.0
1453	1813.0
1454	1819.0
1455	1847.0
1456	1826.0
1457	1804.0
1458	1806.0
1459	1824.0
1460	1834.0
1461	1811.0
1462	1839.0
1463	1837.0
1464	1833.0
1465	1830.0
1466	1833.0
1467	1820.0
1468	1809.0
1469	1850.0
1470	1854.0
1471	1850.0
1472	1829.0
1473	1825.0
1474	1801.0
1475	1827.0
1476	1845.0
1477	1820.0
1478	1811.0
1479	1785.0
1480	1822.0
1481	1850.0
1482	1853.0
1483	1849.0
1484	1844.0
1485	1852.0
1486	1824.0
1487	1790.0
1488	1793.0
1489	1812.0
1490	1817.0
1491	1825.0
1492	1812.0
1493	1804.0
1494	1807.0
1495	1846.0
1496	1858.0
1497	1867.0
1498	1836.0
1499	1812.0
1500	1815.0
1501	1849.0
1502	1874.0
1503	1855.0
1504	1858.0
1505	1851.0
1506	1884.0
1507	1884.0
1508	1885.0
1509	1909.0
1510	1886.0
1511	1880.0
1512	1886.0
1513	1890.0
1514	1866.0
1515	1858.0
1516	1838.0
1517	1815.0
1518	1808.0
1519	1828.0
1520	1837.0
1521	1832.0
1522	1860.0
1523	1850.0
1524	1844.0
1525	1852.0
1526	1816.0
1527	1810.0
1528	1823.0
1529	1848.0
1530	1831.0
1531	1807.0
1532	1816.0
1533	1828.0
1534	1843.0
1535	1842.0
1536	1815.0
1537	1809.0
1538	1839.0
1539	1854.0
1540	1855.0
1541	1813.0
1542	1810.0
1543	1806.0
1544	1799.0
1545	1800.0
1546	1821.0
1547	1824.0
1548	1811.0
1549	1854.0
1550	1836.0
1551	1834.0
1552	1830.0
1553	1828.0
1554	1842.0
1555	1849.0
1556	1853.0
1557	1837.0
1558	1838.0
1559	1844.0
1560	1858.0
1561	1847.0
1562	1837.0
1563	1828.0
1564	1830.0
1565	1860.0
1566	1835.0
1567	1815.0
1568	1823.0
1569	1850.0
1570	1836.0
1571	1823.0
1572	1830.0
1573	1841.0
1574	1852.0
1575	1822.0
1576	1801.0
1577	1814.0
1578	1846.0
1579	1819.0
1580	1813.0
1581	1834.0
1582	1844.0
1583	1838.0
1584	1800.0
1585	1815.0
1586	1833.0
1587	1860.0
1588	1858.0
1589	1838.0
1590	1830.0
1591	1829.0
1592	1865.0
1593	1840.0
1594	1866.0
1595	1853.0
1596	1856.0
1597	1832.0
1598	1812.0
1599	1830.0
1600	1847.0
1601	1853.0
1602	1819.0
1603	1833.0
1604	1824.0
1605	1830.0
1606	1831.0
1607	1838.0
1608	1835.0
1609	1838.0
1610	1840.0
1611	1824.0
1612	1842.0
1613	1835.0
1614	1830.0
1615	1815.0
1616	1844.0
1617	1864.0
1618	1858.0
1619	1866.0
1620	1853.0
1621	1869.0
1622	1871.0
1623	1856.0
1624	1817.0
1625	1805.0
1626	1828.0
1627	1848.0
1628	1822.0
1629	1776.0
1630	1797.0
1631	1823.0
1632	1820.0
1633	1783.0
1634	1794.0
1635	1803.0
1636	1807.0
1637	1823.0
1638	1822.0
1639	1831.0
1640	1819.0
1641	1826.0
1642	1798.0
1643	1812.0
1644	1823.0
1645	1813.0
1646	1814.0
1647	1814.0
1648	1852.0
1649	1837.0
1650	1831.0
1651	1821.0
1652	1829.0
1653	1825.0
1654	1825.0
1655	1819.0
1656	1813.0
1657	1844.0
1658	1853.0
1659	1859.0
1660	1842.0
1661	1840.0
1662	1828.0
1663	1800.0
1664	1814.0
1665	1826.0
1666	1856.0
1667	1866.0
1668	1878.0
1669	1863.0
1670	1855.0
1671	1830.0
1672	1821.0
1673	1848.0
1674	1846.0
1675	1830.0
1676	1826.0
1677	1870.0
1678	1855.0
1679	1815.0
1680	1793.0
1681	1827.0
1682	1842.0
1683	1817.0
1684	1815.0
1685	1801.0
1686	1828.0
1687	1815.0
1688	1818.0
1689	1816.0
1690	1832.0
1691	1843.0
1692	1817.0
1693	1815.0
1694	1821.0
1695	1818.0
1696	1814.0
1697	1814.0
1698	1807.0
1699	1832.0
1700	1826.0
1701	1836.0
1702	1860.0
1703	1876.0
1704	1893.0
1705	1909.0
1706	1904.0
1707	1871.0
1708	1854.0
1709	1834.0
1710	1824.0
1711	1822.0
1712	1825.0
1713	1838.0
1714	1806.0
1715	1805.0
1716	1800.0
1717	1838.0
1718	1840.0
1719	1843.0
1720	1836.0
1721	1842.0
1722	1826.0
1723	1852.0
1724	1873.0
1725	1864.0
1726	1868.0
1727	1828.0
1728	1823.0
1729	1848.0
1730	1864.0
1731	1904.0
1732	1852.0
1733	1832.0
1734	1844.0
1735	1831.0
1736	1801.0
1737	1827.0
1738	1810.0
1739	1823.0
1740	1818.0
1741	1788.0
1742	1804.0
1743	1826.0
1744	1845.0
1745	1836.0
1746	1847.0
1747	1808.0
1748	1787.0
1749	1812.0
1750	1822.0
1751	1844.0
1752	1869.0
1753	1878.0
1754	1827.0
1755	1855.0
1756	1820.0
1757	1810.0
1758	1823.0
1759	1822.0
1760	1824.0
1761	1816.0
1762	1831.0
1763	1828.0
1764	1839.0
1765	1821.0
1766	1800.0
1767	1824.0
1768	1834.0
1769	1822.0
1770	1816.0
1771	1829.0
1772	1816.0
1773	1826.0
1774	1814.0
1775	1836.0
1776	1842.0
1777	1813.0
1778	1835.0
1779	1845.0
1780	1842.0
1781	1820.0
1782	1804.0
1783	1812.0
1784	1858.0
1785	1880.0
1786	1857.0
1787	1843.0
1788	1843.0
1789	1840.0
1790	1809.0
1791	1812.0
1792	1825.0
1793	1866.0
1794	1844.0
1795	1836.0
1796	1848.0
1797	1837.0
1798	1804.0
1799	1782.0
1800	1798.0
1801	1800.0
1802	1807.0
1803	1798.0
1804	1825.0
1805	1824.0
1806	1816.0
1807	1812.0
1808	1804.0
1809	1819.0
1810	1811.0
1811	1820.0
1812	1818.0
1813	1832.0
1814	1840.0
1815	1851.0
1816	1849.0
1817	1827.0
1818	1840.0
1819	1882.0
1820	1853.0
1821	1836.0
1822	1828.0
1823	1815.0
1824	1809.0
1825	1813.0
1826	1814.0
1827	1857.0
1828	1861.0
1829	1870.0
1830	1852.0
1831	1853.0
1832	1852.0
1833	1859.0
1834	1846.0
1835	1808.0
1836	1825.0
1837	1824.0
1838	1808.0
1839	1785.0
1840	1797.0
1841	1805.0
1842	1815.0
1843	1822.0
1844	1836.0
1845	1861.0
1846	1837.0
1847	1818.0
1848	1792.0
1849	1815.0
1850	1783.0
1851	1784.0
1852	1810.0
1853	1787.0
1854	1808.0
1855	1793.0
1856	1830.0
1857	1880.0
1858	1876.0
1859	1868.0
1860	1858.0
1861	1857.0
1862	1830.0
1863	1808.0
1864	1789.0
1865	1792.0
1866	1770.0
1867	1785.0
1868	1778.0
1869	1801.0
1870	1825.0
1871	1828.0
1872	1858.0
1873	1841.0
1874	1835.0
1875	1817.0
1876	1842.0
1877	1840.0
1878	1837.0
1879	1845.0
1880	1824.0
1881	1831.0
1882	1811.0
1883	1840.0
1884	1808.0
1885	1807.0
1886	1809.0
1887	1846.0
1888	1852.0
1889	1825.0
1890	1868.0
1891	1865.0
1892	1861.0
1893	1850.0
1894	1831.0
1895	1803.0
1896	1807.0
1897	1837.0
1898	1846.0
1899	1868.0
1900	1935.0
1901	1963.0
1902	1910.0
1903	1884.0
1904	1857.0
1905	1863.0
1906	1865.0
1907	1874.0
1908	1879.0
1909	1876.0
1910	1868.0
1911	1852.0
1912	1858.0
1913	1860.0
1914	1872.0
1915	1870.0
1916	1839.0
1917	1845.0
1918	1845.0
1919	1852.0
1920	1829.0
1921	1834.0
1922	1816.0
1923	1821.0
1924	1824.0
1925	1839.0
1926	1849.0
1927	1858.0
1928	1840.0
1929	1819.0
1930	1809.0
1931	1816.0
1932	1833.0
1933	1841.0
1934	1853.0
1935	1854.0
1936	1875.0
1937	1868.0
1938	1850.0
1939	1856.0
1940	1847.0
1941	1853.0
1942	1856.0
1943	1858.0
1944	1831.0
1945	1813.0
1946	1826.0
1947	1812.0
1948	1815.0
1949	1824.0
1950	1843.0
1951	1845.0
1952	1878.0
1953	1865.0
1954	1853.0
1955	1871.0
1956	1852.0
1957	1827.0
1958	1834.0
1959	1821.0
1960	1816.0
1961	1850.0
1962	1858.0
1963	1841.0
1964	1854.0
1965	1841.0
1966	1822.0
1967	1824.0
1968	1818.0
1969	1798.0
1970	1793.0
1971	1754.0
1972	1790.0
1973	1836.0
1974	1854.0
1975	1839.0
1976	1823.0
1977	1838.0
1978	1833.0
1979	1842.0
1980	1856.0
1981	1855.0
1982	1824.0
1983	1838.0
1984	1891.0
1985	1887.0
1986	1876.0
1987	1868.0
1988	1863.0
1989	1815.0
1990	1830.0
1991	1845.0
1992	1829.0
1993	1841.0
1994	1837.0
1995	1826.0
1996	1829.0
1997	1822.0
1998	1829.0
1999	1832.0
2000	1816.0
2001	1825.0
2002	1873.0
2003	1866.0
2004	1840.0
2005	1824.0
2006	1828.0
2007	1818.0
2008	1825.0
2009	1809.0
2010	1824.0
2011	1820.0
2012	1821.0
2013	1793.0
2014	1775.0
2015	1791.0
2016	1793.0
2017	1804.0
2018	1795.0
2019	1793.0
2020	1824.0
2021	1832.0
2022	1840.0
2023	1814.0
2024	1829.0
2025	1807.0
2026	1893.0
2027	1967.0
2028	1914.0
2029	1885.0
2030	1871.0
2031	1858.0
2032	1823.0
2033	1880.0
2034	1890.0
2035	1858.0
2036	1833.0
2037	1847.0
2038	1882.0
2039	1886.0
2040	1888.0
2041	1869.0
2042	1863.0
2043	1839.0
2044	1822.0
2045	1837.0
2046	1830.0
2047	1821.0
