================================================================================
RAMAN SPECTROMETER DEBUG LOG
Timestamp: 2026-01-19T16:02:53.722602
================================================================================

--- CONFIGURATION ---
Port: /dev/ttyUSB0
Baudrate: 9600
Integration time: 2000 ms
Timeout: 10.0 s
Expected data points: 2048
Min data points: 2048

--- RAW DATA INFO ---
Total bytes received: 14371
Null bytes count: 1

--- RAW BYTES (first 500, hex) ---
61 0d 0a 41 43 4b 0d 0a 0d 0a 49 32 30 30 30 0d 
0a 41 43 4b 0d 0a 0d 0a 53 0d 0a 41 43 4b 0d 0a 
30 31 38 36 32 0d 0a 30 31 39 31 37 0d 0a 30 31 
39 30 32 0d 0a 30 31 39 31 35 0d 0a 30 31 38 38 
36 0d 0a 30 31 38 39 32 0d 0a 30 31 38 39 37 0d 
0a 30 31 38 39 30 0d 0a 30 31 38 37 38 0d 0a 30 
31 38 39 36 0d 0a 30 31 39 32 36 0d 0a 30 31 38 
39 39 0d 0a 30 31 38 36 38 0d 0a 30 31 38 37 31 
0d 0a 30 31 39 30 39 0d 0a 30 32 31 34 36 0d 0a 
30 32 32 31 36 0d 0a 30 32 30 38 30 0d 0a 30 32 
30 32 35 0d 0a 30 32 30 31 36 0d 0a 30 31 39 39 
35 0d 0a 30 32 30 30 31 0d 0a 30 32 30 38 37 0d 
0a 30 32 31 31 31 0d 0a 30 32 30 37 33 0d 0a 30 
32 30 31 39 0d 0a 30 31 39 37 36 0d 0a 30 31 39 
36 38 0d 0a 30 31 39 37 32 0d 0a 30 31 39 38 39 
0d 0a 30 32 32 31 33 0d 0a 30 32 33 34 35 0d 0a 
30 32 32 34 39 0d 0a 30 32 31 31 30 0d 0a 30 32 
30 36 30 0d 0a 30 32 30 32 38 0d 0a 30 31 39 39 
35 0d 0a 30 31 39 34 39 0d 0a 30 31 39 35 31 0d 
0a 30 31 39 35 36 0d 0a 30 31 39 37 35 0d 0a 30 
32 30 30 38 0d 0a 30 32 30 30 38 0d 0a 30 32 30 
34 36 0d 0a 30 32 34 32 31 0d 0a 30 32 34 38 35 
0d 0a 30 32 32 35 32 0d 0a 30 32 31 34 33 0d 0a 
30 32 30 36 33 0d 0a 30 32 30 30 33 0d 0a 30 31 
39 35 39 0d 0a 30 31 39 34 38 0d 0a 30 31 39 34 
33 0d 0a 30 31 39 32 33 0d 0a 30 31 39 36 38 0d 
0a 30 31 39 38 34 0d 0a 30 31 39 37 37 0d 0a 30 
32 31 36 39 0d 0a 30 32 32 31 38 0d 0a 30 32 30 
37 35 0d 0a 30 32 30 31 34 0d 0a 30 31 39 37 36 
0d 0a 30 31 39 34 38 0d 0a 30 31 39 32 33 0d 0a 
30 31 39 33 35 0d 0a 30 31 39 37 35 0d 0a 30 32 
31 33 34 0d

--- RAW DATA AS STRING (first 1000 chars) ---
a
ACK

I2000
ACK

S
ACK
01862
01917
01902
01915
01886
01892
01897
01890
01878
01896
01926
01899
01868
01871
01909
02146
02216
02080
02025
02016
01995
02001
02087
02111
02073
02019
01976
01968
01972
01989
02213
02345
02249
02110
02060
02028
01995
01949
01951
01956
01975
02008
02008
02046
02421
02485
02252
02143
02063
02003
01959
01948
01943
01923
01968
01984
01977
02169
02218
02075
02014
01976
01948
01923
01935
01975
02134
02166
02050
02021
02037
02042
02025
01998
01969
01960
01929
01910
01926
01937
01924
01916
01926
01927
04044
04526
03306
02674
02332
02144
02013
02060
02291
02310
02143
02093
02037
02000
01990
01977
02078
02090
02096
02039
01969
01940
01938
01927
01971
01992
01973
01947
01971
01980
02030
02037
01971
01936
01960
02004
02001
01964
01983
02065
02066
02013
02024
02004
01995
01973
01950
01918
01913
02061
02038
01967
01945
01956
01

--- PARSED VALUES ---
Total parsed values: 2048
Min value: 1862.0
Max value: 24212.0
Mean value: 4413.885
Saturated values (>=65535): 0
First 20 values: [1862.0, 1917.0, 1902.0, 1915.0, 1886.0, 1892.0, 1897.0, 1890.0, 1878.0, 1896.0, 1926.0, 1899.0, 1868.0, 1871.0, 1909.0, 2146.0, 2216.0, 2080.0, 2025.0, 2016.0]
Last 20 values: [3120.0, 2836.0, 2604.0, 2291.0, 2121.0, 2490.0, 2573.0, 2284.0, 2137.0, 2084.0, 2277.0, 2349.0, 2239.0, 2162.0, 2087.0, 2077.0, 2072.0, 2100.0, 2101.0, 2076.0]

--- FULL SPECTRUM DATA (one value per line) ---
0	1862.0
1	1917.0
2	1902.0
3	1915.0
4	1886.0
5	1892.0
6	1897.0
7	1890.0
8	1878.0
9	1896.0
10	1926.0
11	1899.0
12	1868.0
13	1871.0
14	1909.0
15	2146.0
16	2216.0
17	2080.0
18	2025.0
19	2016.0
20	1995.0
21	2001.0
22	2087.0
23	2111.0
24	2073.0
25	2019.0
26	1976.0
27	1968.0
28	1972.0
29	1989.0
30	2213.0
31	2345.0
32	2249.0
33	2110.0
34	2060.0
35	2028.0
36	1995.0
37	1949.0
38	1951.0
39	1956.0
40	1975.0
41	2008.0
42	2008.0
43	2046.0
44	2421.0
45	2485.0
46	2252.0
47	2143.0
48	2063.0
49	2003.0
50	1959.0
51	1948.0
52	1943.0
53	1923.0
54	1968.0
55	1984.0
56	1977.0
57	2169.0
58	2218.0
59	2075.0
60	2014.0
61	1976.0
62	1948.0
63	1923.0
64	1935.0
65	1975.0
66	2134.0
67	2166.0
68	2050.0
69	2021.0
70	2037.0
71	2042.0
72	2025.0
73	1998.0
74	1969.0
75	1960.0
76	1929.0
77	1910.0
78	1926.0
79	1937.0
80	1924.0
81	1916.0
82	1926.0
83	1927.0
84	4044.0
85	4526.0
86	3306.0
87	2674.0
88	2332.0
89	2144.0
90	2013.0
91	2060.0
92	2291.0
93	2310.0
94	2143.0
95	2093.0
96	2037.0
97	2000.0
98	1990.0
99	1977.0
100	2078.0
101	2090.0
102	2096.0
103	2039.0
104	1969.0
105	1940.0
106	1938.0
107	1927.0
108	1971.0
109	1992.0
110	1973.0
111	1947.0
112	1971.0
113	1980.0
114	2030.0
115	2037.0
116	1971.0
117	1936.0
118	1960.0
119	2004.0
120	2001.0
121	1964.0
122	1983.0
123	2065.0
124	2066.0
125	2013.0
126	2024.0
127	2004.0
128	1995.0
129	1973.0
130	1950.0
131	1918.0
132	1913.0
133	2061.0
134	2038.0
135	1967.0
136	1945.0
137	1956.0
138	1949.0
139	1966.0
140	1942.0
141	2647.0
142	2803.0
143	2377.0
144	2162.0
145	2060.0
146	2105.0
147	2102.0
148	2159.0
149	2150.0
150	2050.0
151	1985.0
152	2017.0
153	2040.0
154	2006.0
155	2010.0
156	1979.0
157	1953.0
158	1985.0
159	1998.0
160	1983.0
161	1977.0
162	2146.0
163	2206.0
164	2083.0
165	2020.0
166	1982.0
167	2041.0
168	2052.0
169	1979.0
170	1937.0
171	1936.0
172	1947.0
173	1931.0
174	1932.0
175	1955.0
176	1978.0
177	1950.0
178	1948.0
179	1984.0
180	1968.0
181	1938.0
182	1921.0
183	1905.0
184	1890.0
185	1908.0
186	1922.0
187	1942.0
188	1937.0
189	2116.0
190	2152.0
191	2043.0
192	2004.0
193	1984.0
194	2057.0
195	2085.0
196	2076.0
197	2045.0
198	1993.0
199	1964.0
200	1986.0
201	1984.0
202	2019.0
203	2036.0
204	1984.0
205	1971.0
206	1951.0
207	1952.0
208	1935.0
209	1947.0
210	1922.0
211	1980.0
212	1996.0
213	2147.0
214	2603.0
215	2566.0
216	2297.0
217	2177.0
218	2060.0
219	2021.0
220	1991.0
221	1946.0
222	1930.0
223	1917.0
224	1947.0
225	1958.0
226	1938.0
227	1947.0
228	1948.0
229	1971.0
230	1954.0
231	1996.0
232	2021.0
233	2423.0
234	2483.0
235	2207.0
236	2065.0
237	2038.0
238	2136.0
239	2099.0
240	2043.0
241	2775.0
242	2952.0
243	2665.0
244	2466.0
245	2211.0
246	2147.0
247	2566.0
248	2578.0
249	2279.0
250	2141.0
251	2092.0
252	2086.0
253	2092.0
254	2027.0
255	2018.0
256	2002.0
257	1981.0
258	1957.0
259	1956.0
260	1988.0
261	1981.0
262	1911.0
263	1908.0
264	1927.0
265	2383.0
266	2495.0
267	2243.0
268	2103.0
269	2067.0
270	2068.0
271	2033.0
272	1997.0
273	1990.0
274	1970.0
275	1961.0
276	1939.0
277	1937.0
278	1904.0
279	1924.0
280	1920.0
281	1920.0
282	1968.0
283	1965.0
284	1948.0
285	1954.0
286	1997.0
287	2041.0
288	2016.0
289	1955.0
290	1955.0
291	1963.0
292	1957.0
293	1958.0
294	1955.0
295	1924.0
296	1909.0
297	1931.0
298	1953.0
299	2006.0
300	1980.0
301	2003.0
302	1983.0
303	1995.0
304	1996.0
305	1984.0
306	1975.0
307	1947.0
308	1934.0
309	3096.0
310	3528.0
311	2896.0
312	2478.0
313	2201.0
314	2204.0
315	2162.0
316	2084.0
317	2033.0
318	1959.0
319	1972.0
320	1989.0
321	1966.0
322	1906.0
323	1900.0
324	1902.0
325	1923.0
326	1937.0
327	1930.0
328	1949.0
329	2253.0
330	2315.0
331	2326.0
332	2300.0
333	2137.0
334	2072.0
335	2272.0
336	2316.0
337	2115.0
338	2025.0
339	2003.0
340	1961.0
341	1974.0
342	1985.0
343	2004.0
344	1996.0
345	2005.0
346	2009.0
347	2033.0
348	1994.0
349	1950.0
350	1977.0
351	1964.0
352	1947.0
353	1934.0
354	1963.0
355	1986.0
356	2024.0
357	2026.0
358	2027.0
359	2025.0
360	2003.0
361	1998.0
362	1983.0
363	1962.0
364	1981.0
365	1992.0
366	1948.0
367	1958.0
368	1975.0
369	1976.0
370	1984.0
371	2024.0
372	2001.0
373	1974.0
374	1978.0
375	1961.0
376	2019.0
377	2096.0
378	2129.0
379	2041.0
380	2055.0
381	2043.0
382	1977.0
383	1947.0
384	1967.0
385	1975.0
386	1983.0
387	2014.0
388	2011.0
389	2003.0
390	1961.0
391	2158.0
392	2189.0
393	2050.0
394	1993.0
395	1985.0
396	2028.0
397	1999.0
398	1979.0
399	1957.0
400	1953.0
401	1919.0
402	1898.0
403	1893.0
404	2133.0
405	2182.0
406	2056.0
407	2008.0
408	1996.0
409	2011.0
410	1991.0
411	1993.0
412	2018.0
413	2015.0
414	1969.0
415	1942.0
416	1918.0
417	1927.0
418	1944.0
419	2106.0
420	2148.0
421	2151.0
422	2326.0
423	2270.0
424	2136.0
425	2046.0
426	1986.0
427	1954.0
428	2030.0
429	2033.0
430	2025.0
431	2004.0
432	1961.0
433	1994.0
434	1981.0
435	1963.0
436	2072.0
437	2106.0
438	2026.0
439	2018.0
440	2383.0
441	2422.0
442	2181.0
443	2035.0
444	1956.0
445	2215.0
446	2315.0
447	2125.0
448	2130.0
449	2083.0
450	2028.0
451	1976.0
452	1950.0
453	1923.0
454	1919.0
455	1972.0
456	2010.0
457	1993.0
458	1951.0
459	2042.0
460	2030.0
461	2104.0
462	2149.0
463	2070.0
464	2023.0
465	1970.0
466	1948.0
467	1947.0
468	1965.0
469	1947.0
470	1929.0
471	1905.0
472	1910.0
473	1899.0
474	2139.0
475	2202.0
476	2055.0
477	2026.0
478	2119.0
479	2253.0
480	2223.0
481	2105.0
482	2022.0
483	1974.0
484	1940.0
485	1976.0
486	1988.0
487	1957.0
488	1913.0
489	1906.0
490	1913.0
491	1926.0
492	2006.0
493	2052.0
494	2074.0
495	2041.0
496	1978.0
497	1964.0
498	1988.0
499	2008.0
500	1970.0
501	1951.0
502	1961.0
503	1973.0
504	1992.0
505	1978.0
506	1928.0
507	1928.0
508	1931.0
509	1918.0
510	1903.0
511	1911.0
512	1949.0
513	1958.0
514	1947.0
515	1920.0
516	1932.0
517	2047.0
518	2301.0
519	2318.0
520	2188.0
521	2087.0
522	1997.0
523	1951.0
524	1932.0
525	1956.0
526	1965.0
527	1957.0
528	1944.0
529	2012.0
530	2021.0
531	1989.0
532	1965.0
533	1960.0
534	1959.0
535	1921.0
536	1945.0
537	1928.0
538	1920.0
539	1934.0
540	1983.0
541	1975.0
542	1969.0
543	1977.0
544	2014.0
545	1997.0
546	1945.0
547	1931.0
548	1936.0
549	1950.0
550	2003.0
551	2028.0
552	2005.0
553	1991.0
554	1958.0
555	1924.0
556	1943.0
557	1990.0
558	1969.0
559	1897.0
560	1920.0
561	1950.0
562	1978.0
563	1968.0
564	2017.0
565	2023.0
566	2014.0
567	2015.0
568	1992.0
569	1990.0
570	1958.0
571	1941.0
572	1927.0
573	2000.0
574	2002.0
575	1973.0
576	1941.0
577	1930.0
578	1908.0
579	1914.0
580	1949.0
581	1923.0
582	1924.0
583	1926.0
584	1938.0
585	1969.0
586	2038.0
587	2032.0
588	2001.0
589	1984.0
590	1943.0
591	2026.0
592	2047.0
593	2004.0
594	1966.0
595	1937.0
596	2168.0
597	2334.0
598	2226.0
599	2109.0
600	2000.0
601	1968.0
602	1950.0
603	1939.0
604	1968.0
605	2043.0
606	2052.0
607	1971.0
608	1972.0
609	2274.0
610	2333.0
611	2115.0
612	2014.0
613	1986.0
614	1986.0
615	1978.0
616	1945.0
617	1952.0
618	1920.0
619	1935.0
620	1937.0
621	1928.0
622	1927.0
623	1947.0
624	2047.0
625	2072.0
626	2026.0
627	1990.0
628	1954.0
629	1938.0
630	1939.0
631	1933.0
632	1963.0
633	1942.0
634	1927.0
635	1939.0
636	1949.0
637	1936.0
638	3048.0
639	3336.0
640	2692.0
641	2328.0
642	2098.0
643	2250.0
644	2298.0
645	2173.0
646	2042.0
647	1957.0
648	1944.0
649	1953.0
650	1946.0
651	1915.0
652	1934.0
653	1922.0
654	1925.0
655	1954.0
656	1998.0
657	1987.0
658	2013.0
659	2041.0
660	1989.0
661	1965.0
662	2069.0
663	2136.0
664	2043.0
665	2006.0
666	2017.0
667	2038.0
668	1998.0
669	1963.0
670	1938.0
671	1927.0
672	1975.0
673	1949.0
674	1920.0
675	1974.0
676	2016.0
677	1965.0
678	1968.0
679	1941.0
680	2047.0
681	2095.0
682	2074.0
683	2046.0
684	2003.0
685	1978.0
686	1947.0
687	1955.0
688	2289.0
689	2371.0
690	2148.0
691	2035.0
692	2030.0
693	2143.0
694	2129.0
695	2026.0
696	1987.0
697	1946.0
698	1937.0
699	1996.0
700	2034.0
701	2019.0
702	2007.0
703	2034.0
704	2061.0
705	2065.0
706	2017.0
707	1975.0
708	1990.0
709	2000.0
710	2153.0
711	2191.0
712	2080.0
713	2050.0
714	2016.0
715	1997.0
716	1987.0
717	2196.0
718	2230.0
719	2208.0
720	2196.0
721	2102.0
722	2057.0
723	2037.0
724	2013.0
725	2191.0
726	2212.0
727	2080.0
728	2013.0
729	1978.0
730	1969.0
731	1974.0
732	1934.0
733	1977.0
734	2202.0
735	2280.0
736	2527.0
737	2548.0
738	2333.0
739	2163.0
740	2056.0
741	1974.0
742	1986.0
743	1970.0
744	1967.0
745	1990.0
746	1981.0
747	2237.0
748	2316.0
749	2150.0
750	2071.0
751	2009.0
752	2095.0
753	2140.0
754	2053.0
755	2006.0
756	1960.0
757	2208.0
758	2276.0
759	2119.0
760	2053.0
761	2026.0
762	2022.0
763	2027.0
764	2034.0
765	2014.0
766	2016.0
767	1998.0
768	2004.0
769	1976.0
770	1982.0
771	1977.0
772	1983.0
773	1979.0
774	1955.0
775	1992.0
776	1983.0
777	2010.0
778	2017.0
779	2031.0
780	2043.0
781	2073.0
782	2032.0
783	2001.0
784	1983.0
785	1978.0
786	1943.0
787	1961.0
788	1986.0
789	1965.0
790	1984.0
791	1971.0
792	1940.0
793	1944.0
794	1978.0
795	1958.0
796	1929.0
797	1920.0
798	1947.0
799	2092.0
800	2117.0
801	2061.0
802	2000.0
803	1994.0
804	1983.0
805	1975.0
806	2005.0
807	2032.0
808	2004.0
809	1952.0
810	1961.0
811	1993.0
812	2214.0
813	2234.0
814	2121.0
815	2046.0
816	2027.0
817	2001.0
818	1968.0
819	2031.0
820	2104.0
821	2115.0
822	2079.0
823	2033.0
824	2034.0
825	2033.0
826	2017.0
827	2102.0
828	2089.0
829	2047.0
830	2032.0
831	1987.0
832	1965.0
833	2037.0
834	2082.0
835	2013.0
836	1991.0
837	1986.0
838	2005.0
839	1988.0
840	1968.0
841	1990.0
842	2018.0
843	2003.0
844	1971.0
845	1983.0
846	1974.0
847	1980.0
848	1972.0
849	1978.0
850	2004.0
851	2062.0
852	2329.0
853	2341.0
854	2164.0
855	3275.0
856	3521.0
857	2858.0
858	2465.0
859	2285.0
860	2234.0
861	2126.0
862	2156.0
863	2129.0
864	2090.0
865	2050.0
866	2005.0
867	1984.0
868	1983.0
869	2005.0
870	2006.0
871	2115.0
872	2138.0
873	2097.0
874	2059.0
875	2066.0
876	2053.0
877	2045.0
878	2071.0
879	2058.0
880	2049.0
881	2019.0
882	2012.0
883	2013.0
884	2012.0
885	2023.0
886	2088.0
887	2083.0
888	2031.0
889	2030.0
890	2016.0
891	2002.0
892	1999.0
893	2013.0
894	1998.0
895	2013.0
896	2010.0
897	2022.0
898	1998.0
899	2048.0
900	2088.0
901	2080.0
902	2063.0
903	2188.0
904	2230.0
905	2119.0
906	2157.0
907	2149.0
908	2369.0
909	2380.0
910	2208.0
911	2115.0
912	2087.0
913	2082.0
914	2092.0
915	2124.0
916	2150.0
917	2924.0
918	3066.0
919	2591.0
920	2320.0
921	2178.0
922	2105.0
923	2077.0
924	2071.0
925	2045.0
926	2025.0
927	1984.0
928	2007.0
929	2019.0
930	2086.0
931	2097.0
932	2081.0
933	2078.0
934	2139.0
935	2182.0
936	2164.0
937	2188.0
938	2319.0
939	2316.0
940	2206.0
941	2162.0
942	2108.0
943	2081.0
944	2060.0
945	2064.0
946	2043.0
947	2082.0
948	2109.0
949	2080.0
950	2064.0
951	2052.0
952	2074.0
953	2069.0
954	2055.0
955	2118.0
956	2165.0
957	2162.0
958	2119.0
959	2076.0
960	2063.0
961	2092.0
962	2211.0
963	2286.0
964	2235.0
965	2177.0
966	2151.0
967	2166.0
968	2163.0
969	2159.0
970	2143.0
971	2169.0
972	2181.0
973	2308.0
974	2322.0
975	2186.0
976	2197.0
977	2212.0
978	2218.0
979	2195.0
980	2154.0
981	2153.0
982	2161.0
983	2973.0
984	3168.0
985	2751.0
986	2543.0
987	2485.0
988	2459.0
989	2508.0
990	2594.0
991	2677.0
992	2725.0
993	2770.0
994	2873.0
995	3220.0
996	3436.0
997	3451.0
998	3562.0
999	3679.0
1000	3849.0
1001	4074.0
1002	4341.0
1003	4614.0
1004	4940.0
1005	5301.0
1006	5627.0
1007	5945.0
1008	6312.0
1009	6756.0
1010	7150.0
1011	7487.0
1012	7767.0
1013	8018.0
1014	8272.0
1015	8518.0
1016	8768.0
1017	9028.0
1018	9272.0
1019	9435.0
1020	9596.0
1021	9781.0
1022	9949.0
1023	10138.0
1024	10366.0
1025	10536.0
1026	10711.0
1027	10899.0
1028	11124.0
1029	11407.0
1030	11502.0
1031	11588.0
1032	11654.0
1033	11800.0
1034	12022.0
1035	12183.0
1036	12328.0
1037	12547.0
1038	12684.0
1039	12799.0
1040	12885.0
1041	13305.0
1042	13511.0
1043	13378.0
1044	13421.0
1045	13436.0
1046	13456.0
1047	14117.0
1048	14301.0
1049	13988.0
1050	13960.0
1051	14045.0
1052	14157.0
1053	14250.0
1054	14297.0
1055	14332.0
1056	14428.0
1057	14625.0
1058	14876.0
1059	15097.0
1060	15193.0
1061	15265.0
1062	15557.0
1063	15744.0
1064	15808.0
1065	15989.0
1066	16214.0
1067	16357.0
1068	16484.0
1069	16778.0
1070	17135.0
1071	17300.0
1072	17349.0
1073	17392.0
1074	17470.0
1075	17521.0
1076	17564.0
1077	17716.0
1078	17831.0
1079	17932.0
1080	17963.0
1081	18062.0
1082	18234.0
1083	18311.0
1084	18336.0
1085	18394.0
1086	18478.0
1087	18563.0
1088	18866.0
1089	18970.0
1090	18961.0
1091	18971.0
1092	19047.0
1093	19004.0
1094	19179.0
1095	19341.0
1096	19340.0
1097	19310.0
1098	19349.0
1099	19414.0
1100	19454.0
1101	19782.0
1102	19890.0
1103	19800.0
1104	19796.0
1105	19901.0
1106	19967.0
1107	19991.0
1108	20096.0
1109	20244.0
1110	20625.0
1111	20728.0
1112	20631.0
1113	20597.0
1114	20643.0
1115	20724.0
1116	20854.0
1117	20870.0
1118	20919.0
1119	21030.0
1120	21140.0
1121	21125.0
1122	21455.0
1123	21618.0
1124	21508.0
1125	21475.0
1126	21422.0
1127	21474.0
1128	21645.0
1129	21784.0
1130	21812.0
1131	21754.0
1132	21849.0
1133	21888.0
1134	21926.0
1135	21866.0
1136	21898.0
1137	22009.0
1138	22054.0
1139	22048.0
1140	22107.0
1141	22557.0
1142	22626.0
1143	22414.0
1144	22227.0
1145	22203.0
1146	22265.0
1147	22367.0
1148	22443.0
1149	22508.0
1150	22560.0
1151	22572.0
1152	22665.0
1153	22717.0
1154	22797.0
1155	22816.0
1156	22874.0
1157	22847.0
1158	22822.0
1159	22761.0
1160	22850.0
1161	22965.0
1162	22986.0
1163	23078.0
1164	23149.0
1165	23154.0
1166	23173.0
1167	23281.0
1168	23202.0
1169	23196.0
1170	23251.0
1171	23288.0
1172	23378.0
1173	23508.0
1174	23812.0
1175	23882.0
1176	23801.0
1177	23717.0
1178	23728.0
1179	23741.0
1180	23798.0
1181	24076.0
1182	24180.0
1183	24081.0
1184	23933.0
1185	23945.0
1186	23932.0
1187	24027.0
1188	24084.0
1189	24005.0
1190	24028.0
1191	24019.0
1192	23878.0
1193	23850.0
1194	24002.0
1195	24018.0
1196	23975.0
1197	23939.0
1198	23923.0
1199	23878.0
1200	23976.0
1201	24031.0
1202	24191.0
1203	24189.0
1204	23949.0
1205	23812.0
1206	23701.0
1207	23681.0
1208	24013.0
1209	24095.0
1210	23897.0
1211	23814.0
1212	23799.0
1213	23966.0
1214	24067.0
1215	23967.0
1216	23872.0
1217	23877.0
1218	23917.0
1219	24032.0
1220	23919.0
1221	23845.0
1222	23946.0
1223	23910.0
1224	23825.0
1225	23813.0
1226	23832.0
1227	23897.0
1228	23945.0
1229	23942.0
1230	23965.0
1231	24184.0
1232	24212.0
1233	24061.0
1234	24031.0
1235	23997.0
1236	23901.0
1237	23825.0
1238	23690.0
1239	23626.0
1240	23611.0
1241	23657.0
1242	23969.0
1243	23986.0
1244	23751.0
1245	23681.0
1246	23706.0
1247	23612.0
1248	23600.0
1249	23631.0
1250	23639.0
1251	23675.0
1252	23674.0
1253	23552.0
1254	23474.0
1255	23450.0
1256	23355.0
1257	23271.0
1258	23225.0
1259	23069.0
1260	22806.0
1261	22532.0
1262	22176.0
1263	21836.0
1264	21434.0
1265	20984.0
1266	20503.0
1267	19883.0
1268	19155.0
1269	18457.0
1270	17713.0
1271	16849.0
1272	15979.0
1273	15002.0
1274	14014.0
1275	13092.0
1276	12460.0
1277	11597.0
1278	10481.0
1279	9428.0
1280	8477.0
1281	7612.0
1282	6766.0
1283	6038.0
1284	5363.0
1285	4756.0
1286	4251.0
1287	3818.0
1288	3439.0
1289	3112.0
1290	2841.0
1291	2649.0
1292	2505.0
1293	2329.0
1294	2416.0
1295	2368.0
1296	2211.0
1297	2116.0
1298	2061.0
1299	2028.0
1300	1979.0
1301	1990.0
1302	1980.0
1303	1968.0
1304	1963.0
1305	1954.0
1306	1956.0
1307	1962.0
1308	1961.0
1309	1978.0
1310	1965.0
1311	1949.0
1312	1957.0
1313	1950.0
1314	1936.0
1315	2045.0
1316	2082.0
1317	2022.0
1318	1998.0
1319	1970.0
1320	1968.0
1321	2001.0
1322	2001.0
1323	1980.0
1324	1982.0
1325	1975.0
1326	1935.0
1327	1921.0
1328	1914.0
1329	1920.0
1330	1877.0
1331	1876.0
1332	1890.0
1333	1931.0
1334	1963.0
1335	1947.0
1336	1957.0
1337	1947.0
1338	1941.0
1339	2364.0
1340	2511.0
1341	2326.0
1342	2278.0
1343	2266.0
1344	2242.0
1345	2152.0
1346	2191.0
1347	2210.0
1348	2085.0
1349	2011.0
1350	1964.0
1351	1953.0
1352	1989.0
1353	2057.0
1354	2067.0
1355	2066.0
1356	2041.0
1357	2259.0
1358	2289.0
1359	2130.0
1360	2395.0
1361	2402.0
1362	2186.0
1363	2068.0
1364	2158.0
1365	2166.0
1366	2081.0
1367	2190.0
1368	2197.0
1369	2084.0
1370	2025.0
1371	1986.0
1372	1926.0
1373	1917.0
1374	1906.0
1375	1964.0
1376	2027.0
1377	2038.0
1378	2013.0
1379	1996.0
1380	2060.0
1381	2057.0
1382	2050.0
1383	1992.0
1384	1978.0
1385	1950.0
1386	1935.0
1387	1938.0
1388	1962.0
1389	1971.0
1390	1974.0
1391	1974.0
1392	1966.0
1393	1951.0
1394	1941.0
1395	1946.0
1396	1982.0
1397	2027.0
1398	2004.0
1399	1980.0
1400	3169.0
1401	3421.0
1402	2719.0
1403	2342.0
1404	2469.0
1405	2415.0
1406	2174.0
1407	2414.0
1408	2441.0
1409	2179.0
1410	2067.0
1411	2014.0
1412	1950.0
1413	1956.0
1414	1956.0
1415	1967.0
1416	1939.0
1417	1944.0
1418	1919.0
1419	1917.0
1420	1919.0
1421	1953.0
1422	1944.0
1423	1953.0
1424	1981.0
1425	1958.0
1426	1922.0
1427	1943.0
1428	1963.0
1429	2016.0
1430	2016.0
1431	1959.0
1432	1954.0
1433	1954.0
1434	2112.0
1435	2179.0
1436	2200.0
1437	2178.0
1438	2053.0
1439	2299.0
1440	2332.0
1441	2151.0
1442	2047.0
1443	2061.0
1444	2033.0
1445	2022.0
1446	2020.0
1447	2004.0
1448	1989.0
1449	1960.0
1450	1943.0
1451	1939.0
1452	1958.0
1453	1923.0
1454	1951.0
1455	1985.0
1456	2000.0
1457	1971.0
1458	1934.0
1459	2245.0
1460	2372.0
1461	2200.0
1462	2140.0
1463	2100.0
1464	2080.0
1465	2041.0
1466	1962.0
1467	1961.0
1468	1939.0
1469	1966.0
1470	1985.0
1471	1962.0
1472	1956.0
1473	1945.0
1474	1946.0
1475	1927.0
1476	1925.0
1477	1945.0
1478	1974.0
1479	1967.0
1480	1934.0
1481	2013.0
1482	2033.0
1483	1995.0
1484	1972.0
1485	2046.0
1486	2030.0
1487	1988.0
1488	1960.0
1489	2011.0
1490	2044.0
1491	2053.0
1492	2074.0
1493	2040.0
1494	2041.0
1495	2020.0
1496	1979.0
1497	1951.0
1498	1944.0
1499	1938.0
1500	1959.0
1501	1949.0
1502	2163.0
1503	2204.0
1504	2069.0
1505	2062.0
1506	2270.0
1507	2367.0
1508	2583.0
1509	2528.0
1510	2218.0
1511	2082.0
1512	2205.0
1513	2200.0
1514	2075.0
1515	2003.0
1516	1958.0
1517	1948.0
1518	1935.0
1519	1908.0
1520	1922.0
1521	1932.0
1522	1983.0
1523	1988.0
1524	1983.0
1525	1954.0
1526	1944.0
1527	1941.0
1528	1944.0
1529	1977.0
1530	1958.0
1531	1943.0
1532	2137.0
1533	2192.0
1534	2070.0
1535	1984.0
1536	1940.0
1537	1983.0
1538	1974.0
1539	1945.0
1540	1946.0
1541	1979.0
1542	2004.0
1543	1976.0
1544	1975.0
1545	1991.0
1546	1993.0
1547	1962.0
1548	1926.0
1549	1910.0
1550	1913.0
1551	1954.0
1552	1999.0
1553	2018.0
1554	1987.0
1555	1983.0
1556	1986.0
1557	1977.0
1558	1988.0
1559	1989.0
1560	1943.0
1561	1922.0
1562	1917.0
1563	1916.0
1564	1928.0
1565	1940.0
1566	1955.0
1567	1936.0
1568	1956.0
1569	1965.0
1570	2001.0
1571	2053.0
1572	2019.0
1573	1962.0
1574	1958.0
1575	1958.0
1576	1906.0
1577	2200.0
1578	2326.0
1579	2166.0
1580	2029.0
1581	1972.0
1582	1941.0
1583	1958.0
1584	1980.0
1585	1986.0
1586	1968.0
1587	1989.0
1588	2000.0
1589	1957.0
1590	1966.0
1591	1955.0
1592	2300.0
1593	2367.0
1594	2306.0
1595	2204.0
1596	2121.0
1597	2103.0
1598	2009.0
1599	1941.0
1600	1912.0
1601	1924.0
1602	1916.0
1603	1926.0
1604	1934.0
1605	1946.0
1606	1963.0
1607	1936.0
1608	1930.0
1609	1982.0
1610	2004.0
1611	2003.0
1612	1991.0
1613	1971.0
1614	1967.0
1615	1910.0
1616	2118.0
1617	2182.0
1618	2115.0
1619	2110.0
1620	2038.0
1621	2004.0
1622	1972.0
1623	1937.0
1624	1911.0
1625	1911.0
1626	1885.0
1627	1912.0
1628	1932.0
1629	1942.0
1630	1939.0
1631	1983.0
1632	2050.0
1633	1990.0
1634	1980.0
1635	1973.0
1636	1974.0
1637	1951.0
1638	1994.0
1639	2032.0
1640	2033.0
1641	2014.0
1642	1968.0
1643	1994.0
1644	1993.0
1645	1987.0
1646	1993.0
1647	2016.0
1648	2003.0
1649	1983.0
1650	1965.0
1651	1981.0
1652	1959.0
1653	1936.0
1654	1937.0
1655	1917.0
1656	1930.0
1657	1950.0
1658	1958.0
1659	1953.0
1660	1952.0
1661	1938.0
1662	1960.0
1663	1968.0
1664	2017.0
1665	2019.0
1666	1987.0
1667	2021.0
1668	1992.0
1669	1976.0
1670	1948.0
1671	1933.0
1672	1961.0
1673	1972.0
1674	1955.0
1675	1977.0
1676	1989.0
1677	1947.0
1678	1948.0
1679	1934.0
1680	1937.0
1681	1935.0
1682	1955.0
1683	1951.0
1684	1949.0
1685	1922.0
1686	1915.0
1687	1969.0
1688	1994.0
1689	1974.0
1690	1967.0
1691	1957.0
1692	2244.0
1693	2330.0
1694	2196.0
1695	2103.0
1696	2033.0
1697	1981.0
1698	1959.0
1699	1964.0
1700	1955.0
1701	1925.0
1702	1964.0
1703	1972.0
1704	1958.0
1705	2140.0
1706	2184.0
1707	2063.0
1708	1988.0
1709	1943.0
1710	1933.0
1711	1930.0
1712	1946.0
1713	1949.0
1714	1934.0
1715	2011.0
1716	2010.0
1717	2302.0
1718	2361.0
1719	2190.0
1720	2110.0
1721	2054.0
1722	2028.0
1723	2323.0
1724	2360.0
1725	2166.0
1726	2109.0
1727	2039.0
1728	2001.0
1729	1964.0
1730	1953.0
1731	2253.0
1732	2312.0
1733	2255.0
1734	2186.0
1735	2079.0
1736	2077.0
1737	2033.0
1738	1949.0
1739	1930.0
1740	1951.0
1741	2004.0
1742	1983.0
1743	1939.0
1744	1953.0
1745	1950.0
1746	1968.0
1747	1947.0
1748	1933.0
1749	1921.0
1750	1943.0
1751	1929.0
1752	2200.0
1753	2277.0
1754	2199.0
1755	2279.0
1756	2199.0
1757	2077.0
1758	2045.0
1759	2075.0
1760	2072.0
1761	2019.0
1762	1978.0
1763	1975.0
1764	1947.0
1765	1943.0
1766	1972.0
1767	2162.0
1768	2167.0
1769	2046.0
1770	2010.0
1771	1960.0
1772	1952.0
1773	1937.0
1774	1937.0
1775	1935.0
1776	1949.0
1777	1931.0
1778	2032.0
1779	2056.0
1780	1990.0
1781	1955.0
1782	1916.0
1783	1955.0
1784	1991.0
1785	2002.0
1786	1982.0
1787	1952.0
1788	1933.0
1789	1970.0
1790	2007.0
1791	1972.0
1792	2003.0
1793	2048.0
1794	2009.0
1795	1944.0
1796	1950.0
1797	1980.0
1798	1955.0
1799	1916.0
1800	1908.0
1801	1902.0
1802	1914.0
1803	1929.0
1804	1903.0
1805	1895.0
1806	1922.0
1807	1957.0
1808	1926.0
1809	1925.0
1810	1921.0
1811	1931.0
1812	2009.0
1813	1976.0
1814	1917.0
1815	1914.0
1816	1918.0
1817	1913.0
1818	1964.0
1819	1994.0
1820	2071.0
1821	2050.0
1822	1976.0
1823	1959.0
1824	1970.0
1825	1965.0
1826	1926.0
1827	1979.0
1828	2047.0
1829	2026.0
1830	1989.0
1831	1962.0
1832	1943.0
1833	1944.0
1834	1980.0
1835	2026.0
1836	1984.0
1837	1985.0
1838	2007.0
1839	1979.0
1840	1972.0
1841	1961.0
1842	1986.0
1843	1973.0
1844	2226.0
1845	2292.0
1846	2137.0
1847	2053.0
1848	2090.0
1849	2109.0
1850	2072.0
1851	2071.0
1852	2043.0
1853	2001.0
1854	1985.0
1855	1969.0
1856	1932.0
1857	1961.0
1858	1978.0
1859	1971.0
1860	1986.0
1861	1957.0
1862	1953.0
1863	1954.0
1864	2006.0
1865	1993.0
1866	1973.0
1867	1950.0
1868	1928.0
1869	2195.0
1870	2307.0
1871	2190.0
1872	2090.0
1873	2021.0
1874	1979.0
1875	1980.0
1876	1941.0
1877	1934.0
1878	1920.0
1879	1903.0
1880	1945.0
1881	1980.0
1882	1962.0
1883	1930.0
1884	1927.0
1885	1927.0
1886	1930.0
1887	1901.0
1888	1910.0
1889	1907.0
1890	2150.0
1891	2224.0
1892	2094.0
1893	2005.0
1894	1973.0
1895	2006.0
1896	2004.0
1897	2007.0
1898	1991.0
1899	1979.0
1900	3529.0
1901	3901.0
1902	2966.0
1903	2597.0
1904	2378.0
1905	2133.0
1906	2177.0
1907	2340.0
1908	2284.0
1909	2261.0
1910	2192.0
1911	2068.0
1912	2286.0
1913	2296.0
1914	2100.0
1915	2023.0
1916	2001.0
1917	2001.0
1918	1958.0
1919	1932.0
1920	1920.0
1921	1923.0
1922	1905.0
1923	1935.0
1924	1943.0
1925	1954.0
1926	1936.0
1927	2012.0
1928	2001.0
1929	1962.0
1930	1958.0
1931	1948.0
1932	1969.0
1933	1967.0
1934	1970.0
1935	1990.0
1936	2280.0
1937	2301.0
1938	2127.0
1939	2045.0
1940	1989.0
1941	1956.0
1942	1944.0
1943	1964.0
1944	1940.0
1945	1969.0
1946	2012.0
1947	2058.0
1948	2041.0
1949	2006.0
1950	1954.0
1951	1971.0
1952	1971.0
1953	2041.0
1954	2059.0
1955	2135.0
1956	2144.0
1957	2031.0
1958	2020.0
1959	1988.0
1960	1980.0
1961	1972.0
1962	1971.0
1963	1960.0
1964	1978.0
1965	2002.0
1966	1945.0
1967	1931.0
1968	1927.0
1969	1941.0
1970	1912.0
1971	1925.0
1972	1973.0
1973	1986.0
1974	1959.0
1975	1946.0
1976	2080.0
1977	2064.0
1978	2002.0
1979	1988.0
1980	1976.0
1981	1924.0
1982	1915.0
1983	1913.0
1984	1955.0
1985	1971.0
1986	1965.0
1987	1946.0
1988	1919.0
1989	1931.0
1990	1972.0
1991	2022.0
1992	1999.0
1993	2088.0
1994	2094.0
1995	1990.0
1996	1939.0
1997	1927.0
1998	1925.0
1999	1932.0
2000	1945.0
2001	1968.0
2002	2148.0
2003	2169.0
2004	2071.0
2005	1990.0
2006	1927.0
2007	1896.0
2008	1919.0
2009	1933.0
2010	1912.0
2011	1906.0
2012	1895.0
2013	1911.0
2014	1907.0
2015	1991.0
2016	2012.0
2017	2003.0
2018	1984.0
2019	1949.0
2020	1938.0
2021	1946.0
2022	2018.0
2023	2030.0
2024	2039.0
2025	2012.0
2026	2871.0
2027	3524.0
2028	3120.0
2029	2836.0
2030	2604.0
2031	2291.0
2032	2121.0
2033	2490.0
2034	2573.0
2035	2284.0
2036	2137.0
2037	2084.0
2038	2277.0
2039	2349.0
2040	2239.0
2041	2162.0
2042	2087.0
2043	2077.0
2044	2072.0
2045	2100.0
2046	2101.0
2047	2076.0
