================================================================================
RAMAN SPECTROMETER DEBUG LOG
Timestamp: 2026-01-19T16:11:59.369135
================================================================================

--- CONFIGURATION ---
Port: /dev/ttyUSB0
Baudrate: 9600
Integration time: 200 ms
Timeout: 10.0 s
Expected data points: 2048
Min data points: 2048

--- RAW DATA INFO ---
Total bytes received: 14370
Null bytes count: 1

--- RAW BYTES (first 500, hex) ---
61 0d 0a 41 43 4b 0d 0a 0d 0a 49 32 30 30 0d 0a 
41 43 4b 0d 0a 0d 0a 53 0d 0a 41 43 4b 0d 0a 30 
31 39 33 38 0d 0a 30 31 39 37 37 0d 0a 30 31 39 
36 35 0d 0a 30 31 39 35 39 0d 0a 30 31 39 34 38 
0d 0a 30 31 39 36 34 0d 0a 30 31 39 34 32 0d 0a 
30 31 39 35 33 0d 0a 30 31 39 38 34 0d 0a 30 31 
39 37 35 0d 0a 30 31 39 37 32 0d 0a 30 31 39 35 
34 0d 0a 30 31 39 35 38 0d 0a 30 31 39 32 38 0d 
0a 30 31 39 34 34 0d 0a 30 31 39 37 36 0d 0a 30 
31 39 37 31 0d 0a 30 31 39 36 31 0d 0a 30 31 39 
39 31 0d 0a 30 31 39 39 34 0d 0a 30 31 39 39 34 
0d 0a 30 31 39 36 34 0d 0a 30 31 39 35 38 0d 0a 
30 31 39 35 38 0d 0a 30 31 39 32 31 0d 0a 30 31 
39 32 38 0d 0a 30 31 39 32 37 0d 0a 30 31 39 35 
31 0d 0a 30 31 39 35 32 0d 0a 30 31 39 34 36 0d 
0a 30 31 39 35 32 0d 0a 30 31 39 37 35 0d 0a 30 
31 39 39 33 0d 0a 30 31 39 38 35 0d 0a 30 31 39 
38 36 0d 0a 30 31 39 34 32 0d 0a 30 31 39 36 33 
0d 0a 30 31 39 36 30 0d 0a 30 31 39 37 39 0d 0a 
30 31 39 36 39 0d 0a 30 31 39 37 33 0d 0a 30 31 
39 35 34 0d 0a 30 31 39 32 35 0d 0a 30 31 39 34 
38 0d 0a 30 32 30 31 38 0d 0a 30 32 30 32 30 0d 
0a 30 32 30 30 31 0d 0a 30 31 39 37 38 0d 0a 30 
31 39 35 33 0d 0a 30 31 39 36 36 0d 0a 30 31 39 
35 39 0d 0a 30 31 39 37 35 0d 0a 30 31 39 35 37 
0d 0a 30 31 39 36 37 0d 0a 30 31 39 36 31 0d 0a 
30 31 39 37 30 0d 0a 30 31 39 37 37 0d 0a 30 32 
30 30 35 0d 0a 30 31 39 38 33 0d 0a 30 31 39 38 
31 0d 0a 30 31 39 36 32 0d 0a 30 31 39 33 31 0d 
0a 30 31 39 34 36 0d 0a 30 31 39 34 35 0d 0a 30 
31 39 34 38 0d 0a 30 31 39 33 37 0d 0a 30 31 39 
34 32 0d 0a

--- RAW DATA AS STRING (first 1000 chars) ---
a
ACK

I200
ACK

S
ACK
01938
01977
01965
01959
01948
01964
01942
01953
01984
01975
01972
01954
01958
01928
01944
01976
01971
01961
01991
01994
01994
01964
01958
01958
01921
01928
01927
01951
01952
01946
01952
01975
01993
01985
01986
01942
01963
01960
01979
01969
01973
01954
01925
01948
02018
02020
02001
01978
01953
01966
01959
01975
01957
01967
01961
01970
01977
02005
01983
01981
01962
01931
01946
01945
01948
01937
01942
01934
01941
01932
01948
01946
01971
01977
01951
01934
01930
01937
01953
01953
01964
01949
01934
01968
02189
02222
02086
01966
01942
01954
01985
01978
01983
01992
01976
01964
01944
01927
01941
01961
01935
01952
01970
01971
01919
01908
01934
01956
01942
01952
01961
01974
01998
01993
02007
01999
02001
01968
01954
01956
01976
01963
01956
01954
01959
01959
01950
01961
01960
01964
01964
01997
01988
01991
01966
01935
01919
01927
019

--- PARSED VALUES ---
Total parsed values: 2048
Min value: 1878.0
Max value: 2490.0
Mean value: 2007.021
Saturated values (>=65535): 0
First 20 values: [1938.0, 1977.0, 1965.0, 1959.0, 1948.0, 1964.0, 1942.0, 1953.0, 1984.0, 1975.0, 1972.0, 1954.0, 1958.0, 1928.0, 1944.0, 1976.0, 1971.0, 1961.0, 1991.0, 1994.0]
Last 20 values: [2065.0, 2025.0, 2022.0, 2001.0, 1989.0, 1994.0, 2009.0, 1971.0, 1958.0, 1948.0, 1988.0, 1973.0, 1980.0, 1987.0, 1955.0, 1960.0, 1942.0, 1954.0, 1950.0, 1961.0]

--- FULL SPECTRUM DATA (one value per line) ---
0	1938.0
1	1977.0
2	1965.0
3	1959.0
4	1948.0
5	1964.0
6	1942.0
7	1953.0
8	1984.0
9	1975.0
10	1972.0
11	1954.0
12	1958.0
13	1928.0
14	1944.0
15	1976.0
16	1971.0
17	1961.0
18	1991.0
19	1994.0
20	1994.0
21	1964.0
22	1958.0
23	1958.0
24	1921.0
25	1928.0
26	1927.0
27	1951.0
28	1952.0
29	1946.0
30	1952.0
31	1975.0
32	1993.0
33	1985.0
34	1986.0
35	1942.0
36	1963.0
37	1960.0
38	1979.0
39	1969.0
40	1973.0
41	1954.0
42	1925.0
43	1948.0
44	2018.0
45	2020.0
46	2001.0
47	1978.0
48	1953.0
49	1966.0
50	1959.0
51	1975.0
52	1957.0
53	1967.0
54	1961.0
55	1970.0
56	1977.0
57	2005.0
58	1983.0
59	1981.0
60	1962.0
61	1931.0
62	1946.0
63	1945.0
64	1948.0
65	1937.0
66	1942.0
67	1934.0
68	1941.0
69	1932.0
70	1948.0
71	1946.0
72	1971.0
73	1977.0
74	1951.0
75	1934.0
76	1930.0
77	1937.0
78	1953.0
79	1953.0
80	1964.0
81	1949.0
82	1934.0
83	1968.0
84	2189.0
85	2222.0
86	2086.0
87	1966.0
88	1942.0
89	1954.0
90	1985.0
91	1978.0
92	1983.0
93	1992.0
94	1976.0
95	1964.0
96	1944.0
97	1927.0
98	1941.0
99	1961.0
100	1935.0
101	1952.0
102	1970.0
103	1971.0
104	1919.0
105	1908.0
106	1934.0
107	1956.0
108	1942.0
109	1952.0
110	1961.0
111	1974.0
112	1998.0
113	1993.0
114	2007.0
115	1999.0
116	2001.0
117	1968.0
118	1954.0
119	1956.0
120	1976.0
121	1963.0
122	1956.0
123	1954.0
124	1959.0
125	1959.0
126	1950.0
127	1961.0
128	1960.0
129	1964.0
130	1964.0
131	1997.0
132	1988.0
133	1991.0
134	1966.0
135	1935.0
136	1919.0
137	1927.0
138	1948.0
139	1921.0
140	1905.0
141	1972.0
142	2007.0
143	1964.0
144	1944.0
145	1939.0
146	1965.0
147	1962.0
148	1969.0
149	1965.0
150	1952.0
151	1950.0
152	1956.0
153	1964.0
154	1943.0
155	1950.0
156	1948.0
157	1932.0
158	1950.0
159	1969.0
160	1947.0
161	1971.0
162	2000.0
163	1989.0
164	1976.0
165	1936.0
166	1929.0
167	1940.0
168	1960.0
169	1949.0
170	1974.0
171	1987.0
172	1982.0
173	1984.0
174	1981.0
175	1967.0
176	1968.0
177	1953.0
178	1964.0
179	1992.0
180	1991.0
181	1995.0
182	1938.0
183	1929.0
184	1919.0
185	1940.0
186	1940.0
187	1946.0
188	1927.0
189	1951.0
190	1963.0
191	1916.0
192	1922.0
193	1952.0
194	2004.0
195	2001.0
196	1987.0
197	1988.0
198	1979.0
199	1955.0
200	1963.0
201	1954.0
202	1976.0
203	1993.0
204	1991.0
205	1983.0
206	1983.0
207	1993.0
208	1969.0
209	1958.0
210	1917.0
211	1929.0
212	1939.0
213	1955.0
214	2021.0
215	2035.0
216	2012.0
217	1980.0
218	2011.0
219	2006.0
220	1977.0
221	1958.0
222	1969.0
223	1964.0
224	1979.0
225	1950.0
226	1952.0
227	1948.0
228	1968.0
229	1990.0
230	1991.0
231	1978.0
232	1968.0
233	1996.0
234	1970.0
235	1950.0
236	1909.0
237	1907.0
238	1907.0
239	1933.0
240	1950.0
241	2011.0
242	2049.0
243	2015.0
244	2013.0
245	2014.0
246	2002.0
247	2006.0
248	2016.0
249	1969.0
250	1936.0
251	1909.0
252	1920.0
253	1937.0
254	1942.0
255	1951.0
256	1965.0
257	1990.0
258	1993.0
259	1962.0
260	1945.0
261	1986.0
262	1972.0
263	1942.0
264	1916.0
265	1955.0
266	1988.0
267	1975.0
268	1967.0
269	1951.0
270	1969.0
271	1981.0
272	2002.0
273	1978.0
274	1985.0
275	1979.0
276	1962.0
277	1955.0
278	1964.0
279	1968.0
280	1962.0
281	1984.0
282	1968.0
283	1952.0
284	1914.0
285	1922.0
286	1910.0
287	1935.0
288	1943.0
289	1979.0
290	1969.0
291	1959.0
292	1943.0
293	1943.0
294	1961.0
295	1948.0
296	1967.0
297	1957.0
298	1968.0
299	1956.0
300	1957.0
301	1944.0
302	1910.0
303	1897.0
304	1927.0
305	1948.0
306	1947.0
307	1946.0
308	1924.0
309	1937.0
310	1976.0
311	1966.0
312	1912.0
313	1916.0
314	1947.0
315	1993.0
316	1976.0
317	1953.0
318	1930.0
319	1915.0
320	1916.0
321	1907.0
322	1946.0
323	1962.0
324	1946.0
325	1948.0
326	1970.0
327	1975.0
328	1964.0
329	1991.0
330	1989.0
331	1993.0
332	1973.0
333	1961.0
334	1946.0
335	1974.0
336	1979.0
337	1974.0
338	1954.0
339	1938.0
340	1951.0
341	1969.0
342	1973.0
343	1969.0
344	1966.0
345	1957.0
346	1955.0
347	1948.0
348	1952.0
349	1943.0
350	1962.0
351	1970.0
352	1978.0
353	2000.0
354	2009.0
355	1968.0
356	1942.0
357	1956.0
358	1950.0
359	1958.0
360	1943.0
361	1948.0
362	1956.0
363	1935.0
364	1920.0
365	1934.0
366	1939.0
367	1972.0
368	1965.0
369	1940.0
370	1950.0
371	1965.0
372	1970.0
373	1945.0
374	1947.0
375	1939.0
376	1940.0
377	1928.0
378	1922.0
379	1918.0
380	1925.0
381	1932.0
382	1922.0
383	1929.0
384	1937.0
385	1952.0
386	1966.0
387	1988.0
388	1996.0
389	2002.0
390	1989.0
391	1993.0
392	1980.0
393	1966.0
394	1934.0
395	1928.0
396	1944.0
397	1952.0
398	1969.0
399	1942.0
400	1933.0
401	1951.0
402	1988.0
403	1980.0
404	1994.0
405	1994.0
406	1973.0
407	1932.0
408	1917.0
409	1937.0
410	1928.0
411	1949.0
412	1957.0
413	1957.0
414	1929.0
415	1928.0
416	1913.0
417	1915.0
418	1930.0
419	1982.0
420	1989.0
421	1968.0
422	1983.0
423	1991.0
424	1978.0
425	1934.0
426	1961.0
427	1957.0
428	1951.0
429	1937.0
430	1977.0
431	1981.0
432	1986.0
433	1983.0
434	1973.0
435	1974.0
436	1974.0
437	1988.0
438	1976.0
439	1977.0
440	1986.0
441	1990.0
442	1962.0
443	1977.0
444	1984.0
445	2000.0
446	2005.0
447	2006.0
448	1999.0
449	2003.0
450	2014.0
451	1995.0
452	1981.0
453	1971.0
454	1949.0
455	1955.0
456	1966.0
457	1951.0
458	1953.0
459	1950.0
460	1948.0
461	1976.0
462	1955.0
463	1948.0
464	1929.0
465	1941.0
466	1952.0
467	1967.0
468	1959.0
469	1954.0
470	1941.0
471	1933.0
472	1910.0
473	1911.0
474	1966.0
475	1973.0
476	1959.0
477	1933.0
478	1960.0
479	1950.0
480	1977.0
481	1930.0
482	1928.0
483	1948.0
484	1959.0
485	1968.0
486	1968.0
487	1957.0
488	1948.0
489	1972.0
490	1965.0
491	1979.0
492	1994.0
493	1995.0
494	1977.0
495	1988.0
496	1942.0
497	1927.0
498	1952.0
499	1960.0
500	1964.0
501	1966.0
502	1964.0
503	1926.0
504	1958.0
505	1963.0
506	1967.0
507	1938.0
508	1933.0
509	1929.0
510	1924.0
511	1922.0
512	1932.0
513	1965.0
514	1947.0
515	1927.0
516	1951.0
517	2008.0
518	2043.0
519	2046.0
520	1985.0
521	1978.0
522	1978.0
523	1984.0
524	1963.0
525	1934.0
526	1930.0
527	1929.0
528	1961.0
529	1955.0
530	1963.0
531	1947.0
532	1943.0
533	1937.0
534	1934.0
535	1932.0
536	1958.0
537	1972.0
538	1931.0
539	1943.0
540	1955.0
541	1984.0
542	1981.0
543	1991.0
544	1984.0
545	1951.0
546	1929.0
547	1976.0
548	1976.0
549	1967.0
550	1962.0
551	1971.0
552	1958.0
553	1947.0
554	1950.0
555	1914.0
556	1940.0
557	1942.0
558	1931.0
559	1903.0
560	1930.0
561	1955.0
562	1969.0
563	1944.0
564	1915.0
565	1931.0
566	1948.0
567	1965.0
568	1952.0
569	1933.0
570	1930.0
571	1940.0
572	1926.0
573	1963.0
574	1967.0
575	1946.0
576	1931.0
577	1923.0
578	1928.0
579	1937.0
580	1960.0
581	1935.0
582	1945.0
583	1974.0
584	1990.0
585	1961.0
586	1965.0
587	1967.0
588	1981.0
589	1988.0
590	1963.0
591	1993.0
592	2006.0
593	2010.0
594	1984.0
595	1978.0
596	1989.0
597	2012.0
598	1993.0
599	1960.0
600	1947.0
601	1953.0
602	1944.0
603	1942.0
604	1953.0
605	1949.0
606	1951.0
607	1920.0
608	1923.0
609	1944.0
610	1968.0
611	1962.0
612	1934.0
613	1920.0
614	1924.0
615	1913.0
616	1907.0
617	1956.0
618	1968.0
619	1954.0
620	1918.0
621	1933.0
622	1964.0
623	1964.0
624	1955.0
625	1970.0
626	1970.0
627	1978.0
628	1956.0
629	1935.0
630	1932.0
631	1935.0
632	1967.0
633	1951.0
634	1946.0
635	1954.0
636	1928.0
637	1908.0
638	2042.0
639	2106.0
640	2056.0
641	2013.0
642	1950.0
643	1965.0
644	1953.0
645	1939.0
646	1918.0
647	1908.0
648	1923.0
649	1924.0
650	1922.0
651	1933.0
652	1905.0
653	1922.0
654	1939.0
655	1927.0
656	1939.0
657	1929.0
658	1950.0
659	1919.0
660	1939.0
661	1938.0
662	1960.0
663	1960.0
664	1937.0
665	1933.0
666	1942.0
667	1959.0
668	1963.0
669	1968.0
670	1944.0
671	1947.0
672	1943.0
673	1959.0
674	1925.0
675	1905.0
676	1891.0
677	1906.0
678	1909.0
679	1921.0
680	1937.0
681	1938.0
682	1945.0
683	1937.0
684	1942.0
685	1956.0
686	1976.0
687	1950.0
688	1962.0
689	1951.0
690	1973.0
691	1967.0
692	1951.0
693	1964.0
694	1949.0
695	1953.0
696	1960.0
697	1967.0
698	1948.0
699	1949.0
700	1957.0
701	1975.0
702	1963.0
703	1947.0
704	1938.0
705	1962.0
706	1992.0
707	1975.0
708	2005.0
709	2005.0
710	1993.0
711	1957.0
712	1953.0
713	1934.0
714	1936.0
715	1946.0
716	1961.0
717	1978.0
718	1980.0
719	1990.0
720	1991.0
721	1991.0
722	1949.0
723	1953.0
724	1932.0
725	1963.0
726	1970.0
727	1944.0
728	1933.0
729	1942.0
730	1951.0
731	1962.0
732	1940.0
733	1916.0
734	1960.0
735	1966.0
736	1980.0
737	1979.0
738	1968.0
739	1960.0
740	1960.0
741	1932.0
742	1953.0
743	1959.0
744	1969.0
745	1973.0
746	1955.0
747	2019.0
748	2022.0
749	1988.0
750	1949.0
751	1964.0
752	1973.0
753	1961.0
754	1946.0
755	1951.0
756	1940.0
757	1982.0
758	1988.0
759	1969.0
760	1967.0
761	1949.0
762	1971.0
763	1955.0
764	1938.0
765	1946.0
766	1957.0
767	1943.0
768	1948.0
769	1971.0
770	1964.0
771	1951.0
772	1947.0
773	1953.0
774	1940.0
775	1955.0
776	1966.0
777	1955.0
778	1960.0
779	1946.0
780	1933.0
781	1956.0
782	1950.0
783	1957.0
784	1957.0
785	1963.0
786	1964.0
787	1936.0
788	1929.0
789	1932.0
790	1941.0
791	1956.0
792	1979.0
793	1937.0
794	1924.0
795	1933.0
796	1964.0
797	1972.0
798	1918.0
799	1927.0
800	1973.0
801	1988.0
802	1952.0
803	1959.0
804	1950.0
805	1961.0
806	1976.0
807	1973.0
808	1960.0
809	1961.0
810	1959.0
811	1937.0
812	1957.0
813	1975.0
814	1982.0
815	1969.0
816	1961.0
817	1942.0
818	1964.0
819	1985.0
820	1970.0
821	1935.0
822	1931.0
823	1939.0
824	1941.0
825	1968.0
826	1981.0
827	1981.0
828	1958.0
829	1966.0
830	1993.0
831	1999.0
832	1971.0
833	1991.0
834	1988.0
835	1946.0
836	1947.0
837	1945.0
838	1960.0
839	1948.0
840	1932.0
841	1943.0
842	1968.0
843	1977.0
844	1957.0
845	1940.0
846	1923.0
847	1925.0
848	1946.0
849	1941.0
850	1913.0
851	1920.0
852	1937.0
853	1965.0
854	1924.0
855	2032.0
856	2068.0
857	2039.0
858	1992.0
859	1970.0
860	1962.0
861	1957.0
862	1986.0
863	1959.0
864	1949.0
865	1962.0
866	1962.0
867	1923.0
868	1918.0
869	1925.0
870	1957.0
871	1979.0
872	1961.0
873	1915.0
874	1921.0
875	1945.0
876	1934.0
877	1930.0
878	1911.0
879	1938.0
880	1937.0
881	1974.0
882	1974.0
883	1950.0
884	1925.0
885	1916.0
886	1947.0
887	1960.0
888	1934.0
889	1933.0
890	1960.0
891	1991.0
892	1992.0
893	1974.0
894	1957.0
895	1944.0
896	1948.0
897	1950.0
898	1956.0
899	1949.0
900	1961.0
901	1986.0
902	1962.0
903	1965.0
904	1945.0
905	1959.0
906	1952.0
907	1966.0
908	1987.0
909	2007.0
910	1988.0
911	1971.0
912	1963.0
913	1955.0
914	1964.0
915	1945.0
916	1966.0
917	2077.0
918	2076.0
919	1999.0
920	1982.0
921	1962.0
922	1951.0
923	1945.0
924	1957.0
925	1939.0
926	1931.0
927	1942.0
928	1938.0
929	1963.0
930	1947.0
931	1950.0
932	1944.0
933	1965.0
934	1959.0
935	1982.0
936	1987.0
937	1961.0
938	1996.0
939	2013.0
940	1988.0
941	1959.0
942	1963.0
943	1977.0
944	1995.0
945	1973.0
946	1954.0
947	1954.0
948	1948.0
949	1957.0
950	1977.0
951	1969.0
952	1940.0
953	1936.0
954	1926.0
955	1971.0
956	1989.0
957	1968.0
958	1937.0
959	1942.0
960	1951.0
961	1958.0
962	1972.0
963	1975.0
964	1978.0
965	1959.0
966	1974.0
967	1961.0
968	1933.0
969	1940.0
970	1965.0
971	1942.0
972	1956.0
973	1945.0
974	1952.0
975	1955.0
976	1946.0
977	1935.0
978	1937.0
979	1967.0
980	1968.0
981	1991.0
982	2007.0
983	2066.0
984	2022.0
985	1989.0
986	1998.0
987	1999.0
988	1994.0
989	1975.0
990	1965.0
991	1948.0
992	1961.0
993	1957.0
994	1961.0
995	1976.0
996	2015.0
997	2012.0
998	2031.0
999	2035.0
1000	1996.0
1001	1970.0
1002	1969.0
1003	1986.0
1004	2015.0
1005	2018.0
1006	2000.0
1007	2019.0
1008	2049.0
1009	2070.0
1010	2076.0
1011	2102.0
1012	2104.0
1013	2096.0
1014	2104.0
1015	2083.0
1016	2071.0
1017	2094.0
1018	2124.0
1019	2105.0
1020	2124.0
1021	2137.0
1022	2118.0
1023	2105.0
1024	2126.0
1025	2135.0
1026	2142.0
1027	2133.0
1028	2149.0
1029	2186.0
1030	2176.0
1031	2164.0
1032	2139.0
1033	2185.0
1034	2218.0
1035	2237.0
1036	2204.0
1037	2195.0
1038	2201.0
1039	2214.0
1040	2205.0
1041	2208.0
1042	2251.0
1043	2248.0
1044	2256.0
1045	2244.0
1046	2239.0
1047	2282.0
1048	2293.0
1049	2257.0
1050	2226.0
1051	2193.0
1052	2189.0
1053	2207.0
1054	2196.0
1055	2190.0
1056	2201.0
1057	2216.0
1058	2190.0
1059	2223.0
1060	2248.0
1061	2242.0
1062	2229.0
1063	2240.0
1064	2228.0
1065	2236.0
1066	2229.0
1067	2220.0
1068	2244.0
1069	2287.0
1070	2316.0
1071	2325.0
1072	2347.0
1073	2324.0
1074	2320.0
1075	2295.0
1076	2263.0
1077	2256.0
1078	2258.0
1079	2273.0
1080	2276.0
1081	2291.0
1082	2282.0
1083	2296.0
1084	2282.0
1085	2318.0
1086	2347.0
1087	2331.0
1088	2334.0
1089	2362.0
1090	2329.0
1091	2304.0
1092	2303.0
1093	2318.0
1094	2344.0
1095	2325.0
1096	2321.0
1097	2299.0
1098	2291.0
1099	2295.0
1100	2323.0
1101	2411.0
1102	2439.0
1103	2376.0
1104	2357.0
1105	2356.0
1106	2349.0
1107	2323.0
1108	2308.0
1109	2357.0
1110	2355.0
1111	2362.0
1112	2336.0
1113	2357.0
1114	2373.0
1115	2370.0
1116	2349.0
1117	2360.0
1118	2348.0
1119	2330.0
1120	2356.0
1121	2377.0
1122	2395.0
1123	2383.0
1124	2367.0
1125	2352.0
1126	2355.0
1127	2324.0
1128	2343.0
1129	2356.0
1130	2343.0
1131	2355.0
1132	2356.0
1133	2340.0
1134	2360.0
1135	2380.0
1136	2354.0
1137	2367.0
1138	2370.0
1139	2349.0
1140	2304.0
1141	2340.0
1142	2387.0
1143	2384.0
1144	2388.0
1145	2399.0
1146	2423.0
1147	2417.0
1148	2394.0
1149	2394.0
1150	2428.0
1151	2419.0
1152	2414.0
1153	2390.0
1154	2397.0
1155	2393.0
1156	2414.0
1157	2419.0
1158	2409.0
1159	2409.0
1160	2355.0
1161	2362.0
1162	2365.0
1163	2390.0
1164	2383.0
1165	2401.0
1166	2386.0
1167	2400.0
1168	2387.0
1169	2376.0
1170	2376.0
1171	2372.0
1172	2404.0
1173	2422.0
1174	2442.0
1175	2425.0
1176	2390.0
1177	2366.0
1178	2390.0
1179	2382.0
1180	2394.0
1181	2420.0
1182	2434.0
1183	2452.0
1184	2449.0
1185	2433.0
1186	2421.0
1187	2407.0
1188	2380.0
1189	2372.0
1190	2391.0
1191	2421.0
1192	2380.0
1193	2365.0
1194	2365.0
1195	2367.0
1196	2374.0
1197	2350.0
1198	2367.0
1199	2397.0
1200	2426.0
1201	2401.0
1202	2402.0
1203	2393.0
1204	2392.0
1205	2384.0
1206	2402.0
1207	2369.0
1208	2356.0
1209	2395.0
1210	2405.0
1211	2408.0
1212	2412.0
1213	2421.0
1214	2394.0
1215	2413.0
1216	2373.0
1217	2381.0
1218	2409.0
1219	2421.0
1220	2427.0
1221	2443.0
1222	2455.0
1223	2441.0
1224	2446.0
1225	2441.0
1226	2410.0
1227	2373.0
1228	2409.0
1229	2455.0
1230	2490.0
1231	2462.0
1232	2454.0
1233	2445.0
1234	2441.0
1235	2385.0
1236	2378.0
1237	2404.0
1238	2413.0
1239	2437.0
1240	2414.0
1241	2426.0
1242	2446.0
1243	2451.0
1244	2423.0
1245	2439.0
1246	2450.0
1247	2445.0
1248	2456.0
1249	2414.0
1250	2409.0
1251	2419.0
1252	2438.0
1253	2411.0
1254	2375.0
1255	2395.0
1256	2420.0
1257	2403.0
1258	2404.0
1259	2415.0
1260	2406.0
1261	2394.0
1262	2392.0
1263	2364.0
1264	2315.0
1265	2329.0
1266	2336.0
1267	2327.0
1268	2294.0
1269	2282.0
1270	2256.0
1271	2248.0
1272	2253.0
1273	2231.0
1274	2208.0
1275	2200.0
1276	2222.0
1277	2205.0
1278	2204.0
1279	2160.0
1280	2129.0
1281	2095.0
1282	2096.0
1283	2084.0
1284	2082.0
1285	2068.0
1286	2066.0
1287	2011.0
1288	1989.0
1289	2011.0
1290	1991.0
1291	1990.0
1292	1957.0
1293	1941.0
1294	1954.0
1295	1990.0
1296	1975.0
1297	1957.0
1298	1945.0
1299	1936.0
1300	1920.0
1301	1905.0
1302	1925.0
1303	1947.0
1304	1951.0
1305	1923.0
1306	1914.0
1307	1922.0
1308	1943.0
1309	1942.0
1310	1944.0
1311	1921.0
1312	1948.0
1313	1954.0
1314	1969.0
1315	1990.0
1316	1981.0
1317	1995.0
1318	1981.0
1319	1957.0
1320	1942.0
1321	1957.0
1322	1948.0
1323	1975.0
1324	1963.0
1325	1933.0
1326	1948.0
1327	1951.0
1328	1954.0
1329	1945.0
1330	1953.0
1331	1936.0
1332	1939.0
1333	1947.0
1334	1948.0
1335	1952.0
1336	1977.0
1337	1974.0
1338	1954.0
1339	1966.0
1340	1947.0
1341	1934.0
1342	1967.0
1343	1984.0
1344	1933.0
1345	1931.0
1346	1926.0
1347	1929.0
1348	1907.0
1349	1905.0
1350	1883.0
1351	1905.0
1352	1934.0
1353	1931.0
1354	1942.0
1355	1946.0
1356	1950.0
1357	1965.0
1358	1976.0
1359	1959.0
1360	1995.0
1361	1998.0
1362	1972.0
1363	1918.0
1364	1916.0
1365	1910.0
1366	1913.0
1367	1949.0
1368	1946.0
1369	1962.0
1370	1967.0
1371	1969.0
1372	1954.0
1373	1963.0
1374	1949.0
1375	1944.0
1376	1953.0
1377	1945.0
1378	1950.0
1379	1929.0
1380	1944.0
1381	1949.0
1382	1973.0
1383	1970.0
1384	1956.0
1385	1931.0
1386	1965.0
1387	1962.0
1388	1960.0
1389	1944.0
1390	1948.0
1391	1945.0
1392	1923.0
1393	1943.0
1394	1932.0
1395	1948.0
1396	1946.0
1397	1961.0
1398	1942.0
1399	1949.0
1400	2058.0
1401	2110.0
1402	2060.0
1403	2006.0
1404	2002.0
1405	1998.0
1406	1973.0
1407	1972.0
1408	1984.0
1409	1988.0
1410	2024.0
1411	2024.0
1412	1995.0
1413	1988.0
1414	1993.0
1415	1957.0
1416	1967.0
1417	1983.0
1418	1967.0
1419	1948.0
1420	1937.0
1421	1953.0
1422	1962.0
1423	1973.0
1424	1964.0
1425	1948.0
1426	1915.0
1427	1927.0
1428	1951.0
1429	1949.0
1430	1950.0
1431	1945.0
1432	1960.0
1433	1959.0
1434	1965.0
1435	1942.0
1436	1926.0
1437	1920.0
1438	1926.0
1439	1960.0
1440	1997.0
1441	1973.0
1442	1977.0
1443	1974.0
1444	1934.0
1445	1943.0
1446	1958.0
1447	1944.0
1448	1912.0
1449	1942.0
1450	1939.0
1451	1945.0
1452	1942.0
1453	1944.0
1454	1943.0
1455	1932.0
1456	1936.0
1457	1935.0
1458	1948.0
1459	1960.0
1460	1947.0
1461	1943.0
1462	1969.0
1463	1969.0
1464	1991.0
1465	1985.0
1466	1985.0
1467	1969.0
1468	1967.0
1469	1967.0
1470	1949.0
1471	1937.0
1472	1924.0
1473	1919.0
1474	1905.0
1475	1942.0
1476	1974.0
1477	1980.0
1478	1967.0
1479	1977.0
1480	1972.0
1481	1968.0
1482	1964.0
1483	1943.0
1484	1981.0
1485	1999.0
1486	1995.0
1487	1973.0
1488	1982.0
1489	1995.0
1490	1981.0
1491	1963.0
1492	1968.0
1493	1955.0
1494	1959.0
1495	1954.0
1496	1937.0
1497	1939.0
1498	1965.0
1499	1992.0
1500	1955.0
1501	1929.0
1502	1941.0
1503	1958.0
1504	1942.0
1505	1945.0
1506	1969.0
1507	1976.0
1508	2011.0
1509	1995.0
1510	1988.0
1511	1959.0
1512	1961.0
1513	1935.0
1514	1942.0
1515	1934.0
1516	1952.0
1517	1969.0
1518	1968.0
1519	1914.0
1520	1905.0
1521	1919.0
1522	1940.0
1523	1957.0
1524	1934.0
1525	1900.0
1526	1888.0
1527	1915.0
1528	1926.0
1529	1932.0
1530	1943.0
1531	1953.0
1532	1969.0
1533	1986.0
1534	1977.0
1535	1923.0
1536	1940.0
1537	1944.0
1538	1932.0
1539	1901.0
1540	1911.0
1541	1939.0
1542	1958.0
1543	1941.0
1544	1935.0
1545	1948.0
1546	1933.0
1547	1940.0
1548	1937.0
1549	1947.0
1550	1966.0
1551	1990.0
1552	1967.0
1553	1970.0
1554	1967.0
1555	1961.0
1556	1944.0
1557	1944.0
1558	1964.0
1559	1973.0
1560	1971.0
1561	1954.0
1562	1956.0
1563	1959.0
1564	1962.0
1565	1951.0
1566	1954.0
1567	1931.0
1568	1946.0
1569	1943.0
1570	1953.0
1571	1936.0
1572	1937.0
1573	1926.0
1574	1909.0
1575	1918.0
1576	1922.0
1577	1980.0
1578	1983.0
1579	1974.0
1580	1935.0
1581	1944.0
1582	1932.0
1583	1934.0
1584	1940.0
1585	1971.0
1586	1967.0
1587	1920.0
1588	1936.0
1589	1924.0
1590	1939.0
1591	1938.0
1592	1967.0
1593	1961.0
1594	1968.0
1595	1938.0
1596	1962.0
1597	1982.0
1598	2005.0
1599	2001.0
1600	1969.0
1601	1972.0
1602	1969.0
1603	1976.0
1604	1973.0
1605	1947.0
1606	1953.0
1607	1976.0
1608	1941.0
1609	1948.0
1610	1974.0
1611	1976.0
1612	1980.0
1613	1967.0
1614	1954.0
1615	1947.0
1616	2004.0
1617	1984.0
1618	1974.0
1619	1942.0
1620	1934.0
1621	1925.0
1622	1929.0
1623	1925.0
1624	1923.0
1625	1925.0
1626	1928.0
1627	1931.0
1628	1934.0
1629	1964.0
1630	1921.0
1631	1912.0
1632	1927.0
1633	1963.0
1634	1963.0
1635	1957.0
1636	1951.0
1637	1950.0
1638	1951.0
1639	1929.0
1640	1930.0
1641	1927.0
1642	1937.0
1643	1938.0
1644	1977.0
1645	1978.0
1646	1961.0
1647	1939.0
1648	1961.0
1649	1967.0
1650	1967.0
1651	1954.0
1652	1945.0
1653	1982.0
1654	1981.0
1655	1963.0
1656	1943.0
1657	1938.0
1658	1926.0
1659	1939.0
1660	1935.0
1661	1931.0
1662	1952.0
1663	1957.0
1664	1963.0
1665	1944.0
1666	1936.0
1667	1955.0
1668	1962.0
1669	1925.0
1670	1921.0
1671	1923.0
1672	1921.0
1673	1920.0
1674	1932.0
1675	1930.0
1676	1957.0
1677	1973.0
1678	1947.0
1679	1948.0
1680	1951.0
1681	1974.0
1682	1948.0
1683	1938.0
1684	1932.0
1685	1946.0
1686	1929.0
1687	1935.0
1688	1912.0
1689	1913.0
1690	1950.0
1691	1947.0
1692	2008.0
1693	1971.0
1694	1958.0
1695	1936.0
1696	1946.0
1697	1923.0
1698	1920.0
1699	1921.0
1700	1925.0
1701	1921.0
1702	1954.0
1703	1954.0
1704	1937.0
1705	1988.0
1706	1990.0
1707	1980.0
1708	1937.0
1709	1940.0
1710	1953.0
1711	1981.0
1712	1938.0
1713	1938.0
1714	1923.0
1715	1933.0
1716	1950.0
1717	1965.0
1718	1978.0
1719	1955.0
1720	1964.0
1721	1930.0
1722	1919.0
1723	1976.0
1724	1999.0
1725	1989.0
1726	1999.0
1727	1945.0
1728	1936.0
1729	1968.0
1730	1953.0
1731	1970.0
1732	1955.0
1733	1962.0
1734	1957.0
1735	1956.0
1736	1949.0
1737	1959.0
1738	1966.0
1739	1963.0
1740	1950.0
1741	1936.0
1742	1922.0
1743	1909.0
1744	1932.0
1745	1934.0
1746	1945.0
1747	1911.0
1748	1916.0
1749	1915.0
1750	1948.0
1751	1954.0
1752	1980.0
1753	1987.0
1754	1982.0
1755	1976.0
1756	1964.0
1757	1936.0
1758	1916.0
1759	1953.0
1760	1955.0
1761	1949.0
1762	1937.0
1763	1936.0
1764	1927.0
1765	1929.0
1766	1961.0
1767	1977.0
1768	1944.0
1769	1937.0
1770	1963.0
1771	1927.0
1772	1907.0
1773	1886.0
1774	1885.0
1775	1878.0
1776	1915.0
1777	1932.0
1778	1945.0
1779	1946.0
1780	1963.0
1781	1960.0
1782	1957.0
1783	1945.0
1784	1952.0
1785	1973.0
1786	1964.0
1787	1974.0
1788	1972.0
1789	1952.0
1790	1944.0
1791	1959.0
1792	1983.0
1793	1984.0
1794	1979.0
1795	1978.0
1796	1978.0
1797	1946.0
1798	1965.0
1799	1969.0
1800	1981.0
1801	1955.0
1802	1936.0
1803	1921.0
1804	1957.0
1805	1946.0
1806	1934.0
1807	1941.0
1808	1925.0
1809	1945.0
1810	1936.0
1811	1943.0
1812	1953.0
1813	1995.0
1814	1981.0
1815	2000.0
1816	1980.0
1817	1965.0
1818	1948.0
1819	1971.0
1820	1962.0
1821	1914.0
1822	1912.0
1823	1913.0
1824	1946.0
1825	1942.0
1826	1942.0
1827	1956.0
1828	1971.0
1829	1924.0
1830	1940.0
1831	1936.0
1832	1952.0
1833	1939.0
1834	1916.0
1835	1927.0
1836	1938.0
1837	1957.0
1838	1944.0
1839	1938.0
1840	1932.0
1841	1941.0
1842	1940.0
1843	1938.0
1844	1982.0
1845	1995.0
1846	1974.0
1847	1946.0
1848	1950.0
1849	1949.0
1850	1971.0
1851	1965.0
1852	1993.0
1853	1980.0
1854	1962.0
1855	1950.0
1856	1964.0
1857	1944.0
1858	1968.0
1859	1995.0
1860	1991.0
1861	2001.0
1862	1984.0
1863	1989.0
1864	1968.0
1865	1974.0
1866	1970.0
1867	1948.0
1868	1912.0
1869	1961.0
1870	1983.0
1871	1968.0
1872	1971.0
1873	1962.0
1874	1970.0
1875	1954.0
1876	1958.0
1877	1950.0
1878	1944.0
1879	1946.0
1880	1958.0
1881	1949.0
1882	1947.0
1883	1938.0
1884	1946.0
1885	1958.0
1886	1939.0
1887	1943.0
1888	1975.0
1889	1984.0
1890	1982.0
1891	1986.0
1892	1972.0
1893	1973.0
1894	1968.0
1895	1983.0
1896	1991.0
1897	1980.0
1898	1972.0
1899	1939.0
1900	2082.0
1901	2106.0
1902	2024.0
1903	1961.0
1904	1950.0
1905	1931.0
1906	1933.0
1907	1933.0
1908	1950.0
1909	1966.0
1910	1976.0
1911	1972.0
1912	1943.0
1913	1933.0
1914	1943.0
1915	1958.0
1916	1939.0
1917	1977.0
1918	1994.0
1919	1988.0
1920	1962.0
1921	1963.0
1922	1951.0
1923	1953.0
1924	1938.0
1925	1927.0
1926	1946.0
1927	1957.0
1928	1978.0
1929	1957.0
1930	1948.0
1931	1944.0
1932	1949.0
1933	1938.0
1934	1951.0
1935	1926.0
1936	1941.0
1937	1950.0
1938	1939.0
1939	1941.0
1940	1953.0
1941	1961.0
1942	1962.0
1943	1975.0
1944	1975.0
1945	1969.0
1946	1941.0
1947	1932.0
1948	1928.0
1949	1947.0
1950	1955.0
1951	1914.0
1952	1928.0
1953	1956.0
1954	1952.0
1955	1940.0
1956	1963.0
1957	1955.0
1958	1944.0
1959	1912.0
1960	1935.0
1961	1949.0
1962	1941.0
1963	1945.0
1964	1950.0
1965	1970.0
1966	1958.0
1967	1928.0
1968	1922.0
1969	1956.0
1970	1961.0
1971	1950.0
1972	1917.0
1973	1923.0
1974	1913.0
1975	1930.0
1976	1974.0
1977	1975.0
1978	1959.0
1979	1958.0
1980	1985.0
1981	1974.0
1982	1950.0
1983	1925.0
1984	1942.0
1985	1948.0
1986	1926.0
1987	1895.0
1988	1930.0
1989	1945.0
1990	1965.0
1991	1976.0
1992	1960.0
1993	1957.0
1994	1941.0
1995	1959.0
1996	1952.0
1997	1940.0
1998	1912.0
1999	1920.0
2000	1926.0
2001	1943.0
2002	1950.0
2003	1937.0
2004	1959.0
2005	1947.0
2006	1935.0
2007	1931.0
2008	1933.0
2009	1945.0
2010	1943.0
2011	1950.0
2012	1946.0
2013	1960.0
2014	1983.0
2015	1989.0
2016	1977.0
2017	1955.0
2018	1934.0
2019	1933.0
2020	1931.0
2021	1940.0
2022	1937.0
2023	1934.0
2024	1897.0
2025	1910.0
2026	2018.0
2027	2098.0
2028	2065.0
2029	2025.0
2030	2022.0
2031	2001.0
2032	1989.0
2033	1994.0
2034	2009.0
2035	1971.0
2036	1958.0
2037	1948.0
2038	1988.0
2039	1973.0
2040	1980.0
2041	1987.0
2042	1955.0
2043	1960.0
2044	1942.0
2045	1954.0
2046	1950.0
2047	1961.0
