================================================================================
RAMAN SPECTROMETER DEBUG LOG
Timestamp: 2026-01-17T15:03:51.771547
================================================================================

--- CONFIGURATION ---
Port: /dev/ttyUSB0
Baudrate: 9600
Integration time: 200 ms
Timeout: 10.0 s
Expected data points: 2048
Min data points: 100

--- RAW DATA INFO ---
Total bytes received: 10083
Null bytes count: 0

--- RAW BYTES (first 500, hex) ---
61 0d 0a 41 43 4b 0d 0a 0d 0a 49 32 30 30 0d 0a 
41 43 4b 0d 0a 0d 0a 53 0d 0a 41 43 4b 0d 0a 30 
31 39 37 34 0d 0a 30 31 39 38 35 0d 0a 30 31 39 
37 30 0d 0a 30 31 39 35 33 0d 0a 30 31 39 34 35 
0d 0a 30 31 39 35 33 0d 0a 30 31 39 35 33 0d 0a 
30 31 39 37 30 0d 0a 30 31 39 39 37 0d 0a 30 31 
39 39 36 0d 0a 30 31 39 37 33 0d 0a 30 31 39 37 
34 0d 0a 30 31 39 35 37 0d 0a 30 31 39 34 31 0d 
0a 30 31 39 35 33 0d 0a 30 32 30 32 31 0d 0a 30 
32 30 31 38 0d 0a 30 32 30 30 31 0d 0a 30 31 39 
39 35 0d 0a 30 31 39 38 36 0d 0a 30 31 39 39 37 
0d 0a 30 31 39 37 35 0d 0a 30 31 39 36 33 0d 0a 
30 31 39 37 32 0d 0a 30 32 30 30 30 0d 0a 30 31 
39 39 36 0d 0a 30 32 30 34 35 0d 0a 30 32 30 35 
37 0d 0a 30 32 30 32 36 0d 0a 30 32 30 32 37 0d 
0a 30 32 30 30 39 0d 0a 30 32 30 31 38 0d 0a 30 
32 30 31 33 0d 0a 30 32 30 31 32 0d 0a 30 31 39 
39 31 0d 0a 30 31 39 38 33 0d 0a 30 31 39 36 31 
0d 0a 30 31 39 38 37 0d 0a 30 31 39 38 37 0d 0a 
30 31 39 38 31 0d 0a 30 31 39 39 37 0d 0a 30 32 
30 31 37 0d 0a 30 32 30 33 37 0d 0a 30 32 30 32 
36 0d 0a 30 32 30 33 36 0d 0a 30 32 30 32 39 0d 
0a 30 32 30 31 35 0d 0a 30 31 39 39 36 0d 0a 30 
32 30 30 33 0d 0a 30 31 39 39 31 0d 0a 30 31 39 
39 31 0d 0a 30 31 39 38 30 0d 0a 30 31 39 38 31 
0d 0a 30 31 39 38 39 0d 0a 30 31 39 38 33 0d 0a 
30 32 30 31 34 0d 0a 30 31 39 38 30 0d 0a 30 31 
39 39 39 0d 0a 30 31 39 39 37 0d 0a 30 32 30 30 
37 0d 0a 30 32 30 30 39 0d 0a 30 31 39 39 34 0d 
0a 30 32 30 30 33 0d 0a 30 32 30 30 31 0d 0a 30 
31 39 39 34 0d 0a 30 32 30 30 30 0d 0a 30 32 30 
31 38 0d 0a

--- RAW DATA AS STRING (first 1000 chars) ---
a
ACK

I200
ACK

S
ACK
01974
01985
01970
01953
01945
01953
01953
01970
01997
01996
01973
01974
01957
01941
01953
02021
02018
02001
01995
01986
01997
01975
01963
01972
02000
01996
02045
02057
02026
02027
02009
02018
02013
02012
01991
01983
01961
01987
01987
01981
01997
02017
02037
02026
02036
02029
02015
01996
02003
01991
01991
01980
01981
01989
01983
02014
01980
01999
01997
02007
02009
01994
02003
02001
01994
02000
02018
02014
02025
02031
02022
02001
01997
01993
02016
02003
02018
02009
02005
02014
02003
01988
01970
01988
02206
02283
02150
02069
02004
02011
02038
01993
02004
02019
02019
01983
01983
01983
01998
02008
02038
02045
02029
02011
02007
01999
02000
02017
02011
02008
02016
02027
02004
01995
02001
01979
01986
01984
02025
02022
01999
01963
01957
01962
01960
01955
01958
02007
02030
02012
01984
01997
01999
01996
01997
02015
01990
01964
019

--- PARSED VALUES ---
Total parsed values: 1436
Min value: 1924.0
Max value: 2283.0
Mean value: 2016.853
First 20 values: [1974.0, 1985.0, 1970.0, 1953.0, 1945.0, 1953.0, 1953.0, 1970.0, 1997.0, 1996.0, 1973.0, 1974.0, 1957.0, 1941.0, 1953.0, 2021.0, 2018.0, 2001.0, 1995.0, 1986.0]
Last 20 values: [1948.0, 1973.0, 1983.0, 1998.0, 1982.0, 1988.0, 2005.0, 2001.0, 2015.0, 1993.0, 1999.0, 2019.0, 2029.0, 1993.0, 1996.0, 1998.0, 1995.0, 2002.0, 1997.0, 2031.0]

--- FULL SPECTRUM DATA (one value per line) ---
0	1974.0
1	1985.0
2	1970.0
3	1953.0
4	1945.0
5	1953.0
6	1953.0
7	1970.0
8	1997.0
9	1996.0
10	1973.0
11	1974.0
12	1957.0
13	1941.0
14	1953.0
15	2021.0
16	2018.0
17	2001.0
18	1995.0
19	1986.0
20	1997.0
21	1975.0
22	1963.0
23	1972.0
24	2000.0
25	1996.0
26	2045.0
27	2057.0
28	2026.0
29	2027.0
30	2009.0
31	2018.0
32	2013.0
33	2012.0
34	1991.0
35	1983.0
36	1961.0
37	1987.0
38	1987.0
39	1981.0
40	1997.0
41	2017.0
42	2037.0
43	2026.0
44	2036.0
45	2029.0
46	2015.0
47	1996.0
48	2003.0
49	1991.0
50	1991.0
51	1980.0
52	1981.0
53	1989.0
54	1983.0
55	2014.0
56	1980.0
57	1999.0
58	1997.0
59	2007.0
60	2009.0
61	1994.0
62	2003.0
63	2001.0
64	1994.0
65	2000.0
66	2018.0
67	2014.0
68	2025.0
69	2031.0
70	2022.0
71	2001.0
72	1997.0
73	1993.0
74	2016.0
75	2003.0
76	2018.0
77	2009.0
78	2005.0
79	2014.0
80	2003.0
81	1988.0
82	1970.0
83	1988.0
84	2206.0
85	2283.0
86	2150.0
87	2069.0
88	2004.0
89	2011.0
90	2038.0
91	1993.0
92	2004.0
93	2019.0
94	2019.0
95	1983.0
96	1983.0
97	1983.0
98	1998.0
99	2008.0
100	2038.0
101	2045.0
102	2029.0
103	2011.0
104	2007.0
105	1999.0
106	2000.0
107	2017.0
108	2011.0
109	2008.0
110	2016.0
111	2027.0
112	2004.0
113	1995.0
114	2001.0
115	1979.0
116	1986.0
117	1984.0
118	2025.0
119	2022.0
120	1999.0
121	1963.0
122	1957.0
123	1962.0
124	1960.0
125	1955.0
126	1958.0
127	2007.0
128	2030.0
129	2012.0
130	1984.0
131	1997.0
132	1999.0
133	1996.0
134	1997.0
135	2015.0
136	1990.0
137	1964.0
138	1953.0
139	1953.0
140	1960.0
141	2028.0
142	2050.0
143	1995.0
144	2009.0
145	1995.0
146	2010.0
147	2028.0
148	2048.0
149	2019.0
150	1980.0
151	1980.0
152	1972.0
153	1983.0
154	1984.0
155	1987.0
156	1954.0
157	1971.0
158	1986.0
159	1999.0
160	2006.0
161	2006.0
162	2028.0
163	2038.0
164	2035.0
165	1978.0
166	1980.0
167	1992.0
168	2009.0
169	1979.0
170	1965.0
171	1963.0
172	1979.0
173	1989.0
174	1996.0
175	2007.0
176	1988.0
177	1980.0
178	1980.0
179	1994.0
180	1981.0
181	1997.0
182	1985.0
183	1981.0
184	1993.0
185	1991.0
186	1990.0
187	1969.0
188	1974.0
189	1983.0
190	2022.0
191	2015.0
192	2012.0
193	1984.0
194	2001.0
195	2019.0
196	2034.0
197	2054.0
198	2050.0
199	2022.0
200	2004.0
201	2018.0
202	1994.0
203	1996.0
204	1973.0
205	1990.0
206	1988.0
207	1983.0
208	1975.0
209	1982.0
210	1998.0
211	2004.0
212	2023.0
213	2029.0
214	2043.0
215	2013.0
216	2012.0
217	1998.0
218	2008.0
219	2042.0
220	2035.0
221	2011.0
222	1991.0
223	2003.0
224	1995.0
225	2003.0
226	1996.0
227	1993.0
228	1996.0
229	1983.0
230	1973.0
231	2025.0
232	2011.0
233	2018.0
234	2040.0
235	2010.0
236	1983.0
237	1982.0
238	1994.0
239	1962.0
240	1949.0
241	2027.0
242	2057.0
243	2027.0
244	2015.0
245	1998.0
246	2031.0
247	2092.0
248	2066.0
249	2039.0
250	1995.0
251	1981.0
252	1986.0
253	2026.0
254	2013.0
255	2012.0
256	2003.0
257	2003.0
258	1987.0
259	1988.0
260	1974.0
261	1970.0
262	1979.0
263	1997.0
264	2045.0
265	2077.0
266	2095.0
267	2062.0
268	2020.0
269	2005.0
270	2006.0
271	2016.0
272	2007.0
273	2020.0
274	2018.0
275	2005.0
276	1983.0
277	1992.0
278	1941.0
279	1944.0
280	1973.0
281	1990.0
282	1988.0
283	1967.0
284	1988.0
285	2003.0
286	2028.0
287	2013.0
288	2022.0
289	2004.0
290	1989.0
291	1955.0
292	1966.0
293	1970.0
294	1978.0
295	1974.0
296	1948.0
297	1959.0
298	1977.0
299	1998.0
300	2018.0
301	2029.0
302	1993.0
303	1983.0
304	1974.0
305	2009.0
306	2020.0
307	2028.0
308	2020.0
309	2103.0
310	2168.0
311	2087.0
312	2058.0
313	2025.0
314	2050.0
315	2032.0
316	2038.0
317	2010.0
318	1971.0
319	1975.0
320	1985.0
321	1985.0
322	1970.0
323	1972.0
324	1972.0
325	2009.0
326	2033.0
327	2017.0
328	1976.0
329	2016.0
330	2007.0
331	2005.0
332	2032.0
333	2020.0
334	2017.0
335	1975.0
336	1978.0
337	1994.0
338	2010.0
339	2016.0
340	2044.0
341	2032.0
342	2015.0
343	2025.0
344	2006.0
345	1997.0
346	1983.0
347	1983.0
348	1950.0
349	1970.0
350	1974.0
351	1976.0
352	1995.0
353	2001.0
354	2003.0
355	1987.0
356	1975.0
357	1977.0
358	1971.0
359	1966.0
360	1995.0
361	1994.0
362	1997.0
363	1972.0
364	1982.0
365	1982.0
366	2011.0
367	2027.0
368	2023.0
369	2017.0
370	1982.0
371	1976.0
372	1977.0
373	1993.0
374	1989.0
375	2015.0
376	2043.0
377	2060.0
378	2031.0
379	1989.0
380	1997.0
381	1979.0
382	2001.0
383	1998.0
384	1999.0
385	2007.0
386	2031.0
387	1996.0
388	1993.0
389	1959.0
390	1937.0
391	1976.0
392	1997.0
393	2001.0
394	2003.0
395	2026.0
396	2020.0
397	2024.0
398	2003.0
399	1997.0
400	1987.0
401	1982.0
402	1970.0
403	1966.0
404	2012.0
405	1982.0
406	1970.0
407	1963.0
408	1986.0
409	1996.0
410	1993.0
411	1998.0
412	2000.0
413	1997.0
414	2013.0
415	2007.0
416	2014.0
417	1984.0
418	1974.0
419	1994.0
420	1999.0
421	2004.0
422	1992.0
423	1987.0
424	1979.0
425	1994.0
426	1988.0
427	2011.0
428	2033.0
429	2010.0
430	2004.0
431	1976.0
432	1986.0
433	1992.0
434	2011.0
435	1984.0
436	2006.0
437	2015.0
438	2018.0
439	2007.0
440	2056.0
441	2098.0
442	2055.0
443	2038.0
444	2012.0
445	2021.0
446	2010.0
447	2020.0
448	2018.0
449	2015.0
450	2002.0
451	1972.0
452	1944.0
453	1953.0
454	1993.0
455	1980.0
456	1977.0
457	1966.0
458	1990.0
459	2026.0
460	2053.0
461	2053.0
462	2055.0
463	2029.0
464	2005.0
465	1992.0
466	1962.0
467	1966.0
468	1963.0
469	1944.0
470	1937.0
471	1981.0
472	1998.0
473	2013.0
474	2036.0
475	2011.0
476	1992.0
477	2003.0
478	2020.0
479	2024.0
480	2015.0
481	2012.0
482	2036.0
483	2031.0
484	2032.0
485	1982.0
486	1968.0
487	1959.0
488	1967.0
489	2025.0
490	2011.0
491	1985.0
492	1969.0
493	1994.0
494	1999.0
495	2019.0
496	2002.0
497	2007.0
498	1981.0
499	1966.0
500	1992.0
501	1978.0
502	1983.0
503	1990.0
504	2002.0
505	1979.0
506	1979.0
507	1977.0
508	1972.0
509	1962.0
510	1978.0
511	1978.0
512	1971.0
513	1989.0
514	1982.0
515	1986.0
516	1989.0
517	2048.0
518	2058.0
519	2048.0
520	2029.0
521	2016.0
522	2001.0
523	1991.0
524	1969.0
525	1977.0
526	1975.0
527	1955.0
528	1975.0
529	1995.0
530	1998.0
531	1975.0
532	1981.0
533	1988.0
534	2010.0
535	2016.0
536	2023.0
537	2013.0
538	1995.0
539	1977.0
540	2003.0
541	2038.0
542	2027.0
543	2015.0
544	1987.0
545	1998.0
546	2001.0
547	2017.0
548	1999.0
549	1972.0
550	1985.0
551	1994.0
552	2016.0
553	1983.0
554	1958.0
555	1942.0
556	1976.0
557	1989.0
558	2004.0
559	1994.0
560	1996.0
561	2020.0
562	1974.0
563	1975.0
564	1983.0
565	1985.0
566	1977.0
567	1995.0
568	2015.0
569	2035.0
570	2017.0
571	2007.0
572	2015.0
573	2046.0
574	2030.0
575	1991.0
576	1994.0
577	1984.0
578	1987.0
579	1988.0
580	2006.0
581	1987.0
582	1997.0
583	2005.0
584	2011.0
585	2035.0
586	2027.0
587	2028.0
588	2034.0
589	2051.0
590	2030.0
591	2013.0
592	1997.0
593	1985.0
594	1979.0
595	2007.0
596	2035.0
597	2028.0
598	2001.0
599	1996.0
600	2011.0
601	2008.0
602	2015.0
603	1997.0
604	2011.0
605	2016.0
606	2017.0
607	2007.0
608	2024.0
609	2061.0
610	2051.0
611	2016.0
612	1983.0
613	1986.0
614	1970.0
615	1992.0
616	1985.0
617	2006.0
618	2010.0
619	1984.0
620	1969.0
621	1984.0
622	1992.0
623	1949.0
624	1985.0
625	2025.0
626	2026.0
627	1976.0
628	1949.0
629	1948.0
630	1956.0
631	1947.0
632	1974.0
633	1979.0
634	1979.0
635	2004.0
636	2035.0
637	2028.0
638	2016.0
639	2008.0
640	1980.0
641	1986.0
642	1999.0
643	2010.0
644	2004.0
645	2012.0
646	2047.0
647	2033.0
648	2002.0
649	1989.0
650	2011.0
651	2031.0
652	2041.0
653	2006.0
654	1998.0
655	1972.0
656	1970.0
657	1970.0
658	1953.0
659	1971.0
660	1991.0
661	2011.0
662	2020.0
663	2020.0
664	1995.0
665	2023.0
666	2032.0
667	2011.0
668	1993.0
669	2009.0
670	2000.0
671	2017.0
672	2037.0
673	2032.0
674	2043.0
675	2016.0
676	2033.0
677	2018.0
678	2017.0
679	2017.0
680	2023.0
681	2034.0
682	2044.0
683	2020.0
684	1973.0
685	1981.0
686	2004.0
687	2020.0
688	2040.0
689	2050.0
690	2015.0
691	2018.0
692	2039.0
693	2048.0
694	2041.0
695	2012.0
696	1999.0
697	1996.0
698	1973.0
699	1981.0
700	2002.0
701	1987.0
702	2014.0
703	2010.0
704	2024.0
705	2021.0
706	2020.0
707	2002.0
708	1978.0
709	2005.0
710	2017.0
711	2041.0
712	2028.0
713	2011.0
714	1989.0
715	2002.0
716	1986.0
717	2002.0
718	2003.0
719	1957.0
720	1981.0
721	1977.0
722	1990.0
723	1989.0
724	1983.0
725	1998.0
726	2029.0
727	2007.0
728	1955.0
729	1948.0
730	1974.0
731	1979.0
732	1976.0
733	1968.0
734	1986.0
735	2021.0
736	2007.0
737	2006.0
738	2011.0
739	2012.0
740	1988.0
741	1959.0
742	1977.0
743	1982.0
744	1964.0
745	1924.0
746	1961.0
747	2010.0
748	2043.0
749	2007.0
750	2005.0
751	2022.0
752	2032.0
753	2028.0
754	1983.0
755	1970.0
756	1948.0
757	1974.0
758	1973.0
759	1984.0
760	1991.0
761	1971.0
762	1976.0
763	2011.0
764	2006.0
765	2024.0
766	2003.0
767	1995.0
768	2009.0
769	2009.0
770	2001.0
771	1976.0
772	1956.0
773	1955.0
774	1979.0
775	1962.0
776	1980.0
777	2015.0
778	2036.0
779	2027.0
780	1998.0
781	1972.0
782	1986.0
783	2019.0
784	2015.0
785	1998.0
786	1985.0
787	2008.0
788	1994.0
789	1985.0
790	1982.0
791	1959.0
792	1957.0
793	1969.0
794	1986.0
795	1990.0
796	2003.0
797	1995.0
798	2003.0
799	1997.0
800	2031.0
801	1994.0
802	1983.0
803	2000.0
804	2003.0
805	2013.0
806	2009.0
807	2010.0
808	2000.0
809	2002.0
810	1982.0
811	1971.0
812	1967.0
813	1993.0
814	2010.0
815	2009.0
816	2048.0
817	2027.0
818	2010.0
819	1992.0
820	2011.0
821	1981.0
822	1991.0
823	1997.0
824	2029.0
825	1995.0
826	1972.0
827	2015.0
828	2028.0
829	2022.0
830	1996.0
831	1996.0
832	1974.0
833	1965.0
834	1970.0
835	1997.0
836	1988.0
837	1981.0
838	1962.0
839	1943.0
840	1974.0
841	1992.0
842	2009.0
843	2004.0
844	2005.0
845	1989.0
846	1972.0
847	1965.0
848	1990.0
849	2005.0
850	2026.0
851	2008.0
852	2023.0
853	2046.0
854	2035.0
855	2131.0
856	2127.0
857	2073.0
858	2030.0
859	2003.0
860	1991.0
861	1991.0
862	1988.0
863	2002.0
864	2017.0
865	2026.0
866	2030.0
867	2009.0
868	1992.0
869	2007.0
870	2037.0
871	2010.0
872	2025.0
873	2007.0
874	2009.0
875	1991.0
876	1983.0
877	2002.0
878	2003.0
879	2023.0
880	2024.0
881	2013.0
882	2019.0
883	2007.0
884	1979.0
885	1991.0
886	2013.0
887	2029.0
888	2028.0
889	1999.0
890	1971.0
891	1970.0
892	1998.0
893	2006.0
894	2028.0
895	2020.0
896	2029.0
897	2027.0
898	2028.0
899	2012.0
900	2019.0
901	2038.0
902	2030.0
903	2034.0
904	2021.0
905	2021.0
906	1999.0
907	1997.0
908	2028.0
909	2037.0
910	2005.0
911	1984.0
912	1972.0
913	1987.0
914	2006.0
915	2003.0
916	2006.0
917	2084.0
918	2126.0
919	2076.0
920	2048.0
921	2018.0
922	2001.0
923	2001.0
924	2001.0
925	2000.0
926	1987.0
927	2011.0
928	2032.0
929	2016.0
930	1988.0
931	2001.0
932	1976.0
933	1959.0
934	1959.0
935	1978.0
936	1985.0
937	1962.0
938	2006.0
939	2011.0
940	1996.0
941	1979.0
942	1978.0
943	1981.0
944	1996.0
945	2017.0
946	2012.0
947	1993.0
948	1989.0
949	2012.0
950	2012.0
951	2001.0
952	2005.0
953	2033.0
954	2008.0
955	2026.0
956	2031.0
957	2028.0
958	2021.0
959	2017.0
960	2007.0
961	2008.0
962	2034.0
963	2051.0
964	2036.0
965	2023.0
966	2027.0
967	1991.0
968	1982.0
969	1987.0
970	2009.0
971	2007.0
972	1983.0
973	1986.0
974	1998.0
975	1995.0
976	1969.0
977	1958.0
978	1959.0
979	1986.0
980	1962.0
981	1980.0
982	1960.0
983	2050.0
984	2079.0
985	2032.0
986	2009.0
987	2011.0
988	2022.0
989	2001.0
990	1993.0
991	1991.0
992	2018.0
993	2015.0
994	2030.0
995	2054.0
996	2020.0
997	2000.0
998	1988.0
999	2028.0
1000	2049.0
1001	2017.0
1002	1999.0
1003	2028.0
1004	2028.0
1005	2034.0
1006	2031.0
1007	2028.0
1008	2025.0
1009	2033.0
1010	2039.0
1011	2023.0
1012	2041.0
1013	2036.0
1014	2028.0
1015	2013.0
1016	2026.0
1017	2021.0
1018	2030.0
1019	2028.0
1020	2034.0
1021	2066.0
1022	2055.0
1023	2063.0
1024	2043.0
1025	2008.0
1026	2015.0
1027	2063.0
1028	2075.0
1029	2077.0
1030	2060.0
1031	2055.0
1032	2041.0
1033	2012.0
1034	2029.0
1035	2016.0
1036	2039.0
1037	2034.0
1038	2028.0
1039	2035.0
1040	2062.0
1041	2077.0
1042	2078.0
1043	2030.0
1044	2026.0
1045	2044.0
1046	2038.0
1047	2076.0
1048	2079.0
1049	2080.0
1050	2080.0
1051	2089.0
1052	2072.0
1053	2066.0
1054	2050.0
1055	2046.0
1056	2031.0
1057	2045.0
1058	2055.0
1059	2039.0
1060	2064.0
1061	2054.0
1062	2092.0
1063	2101.0
1064	2098.0
1065	2078.0
1066	2066.0
1067	2072.0
1068	2088.0
1069	2096.0
1070	2122.0
1071	2116.0
1072	2095.0
1073	2053.0
1074	2008.0
1075	2022.0
1076	2047.0
1077	2078.0
1078	2082.0
1079	2076.0
1080	2037.0
1081	2031.0
1082	2043.0
1083	2063.0
1084	2093.0
1085	2079.0
1086	2063.0
1087	2024.0
1088	2080.0
1089	2086.0
1090	2102.0
1091	2113.0
1092	2074.0
1093	2033.0
1094	2022.0
1095	2055.0
1096	2055.0
1097	2049.0
1098	2040.0
1099	2045.0
1100	2056.0
1101	2148.0
1102	2160.0
1103	2127.0
1104	2100.0
1105	2084.0
1106	2115.0
1107	2093.0
1108	2095.0
1109	2114.0
1110	2146.0
1111	2132.0
1112	2142.0
1113	2109.0
1114	2084.0
1115	2071.0
1116	2089.0
1117	2097.0
1118	2086.0
1119	2084.0
1120	2063.0
1121	2097.0
1122	2152.0
1123	2171.0
1124	2112.0
1125	2068.0
1126	2077.0
1127	2087.0
1128	2084.0
1129	2104.0
1130	2095.0
1131	2085.0
1132	2084.0
1133	2082.0
1134	2097.0
1135	2086.0
1136	2078.0
1137	2066.0
1138	2068.0
1139	2076.0
1140	2069.0
1141	2094.0
1142	2096.0
1143	2084.0
1144	2080.0
1145	2040.0
1146	2010.0
1147	2044.0
1148	2077.0
1149	2099.0
1150	2081.0
1151	2084.0
1152	2084.0
1153	2098.0
1154	2088.0
1155	2062.0
1156	2100.0
1157	2101.0
1158	2111.0
1159	2088.0
1160	2084.0
1161	2083.0
1162	2101.0
1163	2116.0
1164	2126.0
1165	2111.0
1166	2101.0
1167	2119.0
1168	2101.0
1169	2125.0
1170	2140.0
1171	2106.0
1172	2053.0
1173	2035.0
1174	2056.0
1175	2075.0
1176	2064.0
1177	2061.0
1178	2069.0
1179	2076.0
1180	2086.0
1181	2089.0
1182	2110.0
1183	2080.0
1184	2102.0
1185	2128.0
1186	2125.0
1187	2102.0
1188	2079.0
1189	2087.0
1190	2093.0
1191	2103.0
1192	2082.0
1193	2054.0
1194	2052.0
1195	2061.0
1196	2085.0
1197	2118.0
1198	2082.0
1199	2064.0
1200	2079.0
1201	2109.0
1202	2128.0
1203	2122.0
1204	2106.0
1205	2074.0
1206	2074.0
1207	2092.0
1208	2120.0
1209	2121.0
1210	2134.0
1211	2103.0
1212	2100.0
1213	2103.0
1214	2116.0
1215	2112.0
1216	2057.0
1217	2085.0
1218	2089.0
1219	2106.0
1220	2079.0
1221	2066.0
1222	2086.0
1223	2104.0
1224	2096.0
1225	2114.0
1226	2076.0
1227	2064.0
1228	2082.0
1229	2068.0
1230	2103.0
1231	2140.0
1232	2132.0
1233	2075.0
1234	2058.0
1235	2078.0
1236	2096.0
1237	2073.0
1238	2068.0
1239	2064.0
1240	2085.0
1241	2103.0
1242	2106.0
1243	2127.0
1244	2109.0
1245	2114.0
1246	2109.0
1247	2131.0
1248	2128.0
1249	2126.0
1250	2113.0
1251	2095.0
1252	2092.0
1253	2116.0
1254	2109.0
1255	2055.0
1256	2052.0
1257	2041.0
1258	2054.0
1259	2050.0
1260	2088.0
1261	2083.0
1262	2113.0
1263	2124.0
1264	2105.0
1265	2075.0
1266	2042.0
1267	2032.0
1268	2017.0
1269	2040.0
1270	2066.0
1271	2064.0
1272	2036.0
1273	2054.0
1274	2066.0
1275	2081.0
1276	2103.0
1277	2067.0
1278	2069.0
1279	2040.0
1280	2025.0
1281	2025.0
1282	2014.0
1283	1979.0
1284	1968.0
1285	1954.0
1286	1959.0
1287	1993.0
1288	2020.0
1289	2015.0
1290	2005.0
1291	1994.0
1292	1983.0
1293	1986.0
1294	2004.0
1295	2013.0
1296	1991.0
1297	2002.0
1298	1996.0
1299	1966.0
1300	1959.0
1301	1981.0
1302	2007.0
1303	1975.0
1304	1982.0
1305	1982.0
1306	1977.0
1307	1964.0
1308	1982.0
1309	1971.0
1310	1984.0
1311	1981.0
1312	1966.0
1313	1989.0
1314	1981.0
1315	2006.0
1316	2005.0
1317	1988.0
1318	1976.0
1319	1980.0
1320	1968.0
1321	2003.0
1322	2020.0
1323	2027.0
1324	2021.0
1325	1982.0
1326	1981.0
1327	1984.0
1328	1991.0
1329	1987.0
1330	1993.0
1331	1998.0
1332	2016.0
1333	2009.0
1334	2026.0
1335	2050.0
1336	2065.0
1337	2065.0
1338	2044.0
1339	2079.0
1340	2097.0
1341	2074.0
1342	2028.0
1343	2024.0
1344	2032.0
1345	2021.0
1346	2009.0
1347	2012.0
1348	2017.0
1349	2015.0
1350	1985.0
1351	1951.0
1352	1958.0
1353	1969.0
1354	1997.0
1355	2003.0
1356	2010.0
1357	2002.0
1358	1999.0
1359	1993.0
1360	2038.0
1361	2074.0
1362	2036.0
1363	2024.0
1364	2029.0
1365	2046.0
1366	2047.0
1367	2060.0
1368	2031.0
1369	2029.0
1370	2024.0
1371	2040.0
1372	2035.0
1373	2001.0
1374	2033.0
1375	2032.0
1376	2031.0
1377	2006.0
1378	1999.0
1379	1995.0
1380	1992.0
1381	1975.0
1382	1986.0
1383	1997.0
1384	1993.0
1385	1990.0
1386	1975.0
1387	1977.0
1388	1958.0
1389	1981.0
1390	1989.0
1391	1990.0
1392	1998.0
1393	1997.0
1394	1992.0
1395	2029.0
1396	2042.0
1397	2008.0
1398	1983.0
1399	1979.0
1400	2092.0
1401	2117.0
1402	2071.0
1403	2036.0
1404	2054.0
1405	2048.0
1406	2016.0
1407	2024.0
1408	2031.0
1409	2028.0
1410	2036.0
1411	2026.0
1412	2017.0
1413	2012.0
1414	1964.0
1415	1949.0
1416	1948.0
1417	1973.0
1418	1983.0
1419	1998.0
1420	1982.0
1421	1988.0
1422	2005.0
1423	2001.0
1424	2015.0
1425	1993.0
1426	1999.0
1427	2019.0
1428	2029.0
1429	1993.0
1430	1996.0
1431	1998.0
1432	1995.0
1433	2002.0
1434	1997.0
1435	2031.0
