================================================================================
RAMAN SPECTROMETER DEBUG LOG
Timestamp: 2026-01-19T16:11:27.397393
================================================================================

--- CONFIGURATION ---
Port: /dev/ttyUSB0
Baudrate: 9600
Integration time: 200 ms
Timeout: 10.0 s
Expected data points: 2048
Min data points: 2048

--- RAW DATA INFO ---
Total bytes received: 14370
Null bytes count: 1

--- RAW BYTES (first 500, hex) ---
61 0d 0a 41 43 4b 0d 0a 0d 0a 49 32 30 30 0d 0a 
41 43 4b 0d 0a 0d 0a 53 0d 0a 41 43 4b 0d 0a 30 
31 39 32 33 0d 0a 30 31 38 39 32 0d 0a 30 31 39 
30 36 0d 0a 30 31 39 30 39 0d 0a 30 31 39 34 36 
0d 0a 30 31 39 35 38 0d 0a 30 31 39 35 34 0d 0a 
30 31 39 31 39 0d 0a 30 31 39 31 31 0d 0a 30 31 
39 33 31 0d 0a 30 31 39 33 33 0d 0a 30 31 39 32 
37 0d 0a 30 31 39 33 37 0d 0a 30 31 39 34 34 0d 
0a 30 31 39 35 39 0d 0a 30 31 39 36 33 0d 0a 30 
31 39 35 33 0d 0a 30 31 39 36 33 0d 0a 30 31 39 
37 30 0d 0a 30 31 39 36 36 0d 0a 30 31 39 34 35 
0d 0a 30 31 39 35 37 0d 0a 30 31 39 36 39 0d 0a 
30 31 39 37 30 0d 0a 30 31 39 33 30 0d 0a 30 31 
39 33 32 0d 0a 30 31 39 35 39 0d 0a 30 31 39 37 
35 0d 0a 30 31 39 35 34 0d 0a 30 31 39 30 34 0d 
0a 30 31 39 34 33 0d 0a 30 31 39 36 35 0d 0a 30 
31 39 37 30 0d 0a 30 31 39 34 32 0d 0a 30 31 39 
34 37 0d 0a 30 31 39 34 34 0d 0a 30 31 39 33 39 
0d 0a 30 31 39 33 37 0d 0a 30 31 39 35 35 0d 0a 
30 31 39 33 39 0d 0a 30 31 39 36 33 0d 0a 30 31 
39 38 34 0d 0a 30 31 39 37 39 0d 0a 30 31 39 38 
32 0d 0a 30 31 39 39 35 0d 0a 30 31 39 38 31 0d 
0a 30 31 39 34 35 0d 0a 30 31 39 37 30 0d 0a 30 
31 39 36 33 0d 0a 30 31 39 36 34 0d 0a 30 31 39 
36 30 0d 0a 30 31 39 37 38 0d 0a 30 31 39 34 38 
0d 0a 30 31 39 32 34 0d 0a 30 31 39 32 34 0d 0a 
30 31 39 32 33 0d 0a 30 31 39 37 31 0d 0a 30 31 
39 39 35 0d 0a 30 31 39 39 39 0d 0a 30 31 39 36 
38 0d 0a 30 31 39 35 38 0d 0a 30 31 39 35 30 0d 
0a 30 31 39 36 32 0d 0a 30 31 39 33 35 0d 0a 30 
31 39 32 33 0d 0a 30 31 39 32 39 0d 0a 30 31 39 
38 34 0d 0a

--- RAW DATA AS STRING (first 1000 chars) ---
a
ACK

I200
ACK

S
ACK
01923
01892
01906
01909
01946
01958
01954
01919
01911
01931
01933
01927
01937
01944
01959
01963
01953
01963
01970
01966
01945
01957
01969
01970
01930
01932
01959
01975
01954
01904
01943
01965
01970
01942
01947
01944
01939
01937
01955
01939
01963
01984
01979
01982
01995
01981
01945
01970
01963
01964
01960
01978
01948
01924
01924
01923
01971
01995
01999
01968
01958
01950
01962
01935
01923
01929
01984
01988
01964
01964
01956
01972
01976
01961
01954
01949
01912
01917
01919
01951
01974
01932
01927
01939
02152
02165
02052
02007
02005
02004
01976
01970
01999
02009
02000
01992
01955
01958
01949
01947
01951
01958
01941
01926
01937
01963
01947
01930
01962
01968
01952
01919
01929
01940
01977
01968
01971
01954
01957
01955
01930
01949
01970
01994
01975
01993
01998
01998
01999
01969
01934
01952
01976
01961
01966
01966
01984
01954
019

--- PARSED VALUES ---
Total parsed values: 2048
Min value: 1879.0
Max value: 2165.0
Mean value: 1962.526
Saturated values (>=65535): 0
First 20 values: [1923.0, 1892.0, 1906.0, 1909.0, 1946.0, 1958.0, 1954.0, 1919.0, 1911.0, 1931.0, 1933.0, 1927.0, 1937.0, 1944.0, 1959.0, 1963.0, 1953.0, 1963.0, 1970.0, 1966.0]
Last 20 values: [2084.0, 2052.0, 2009.0, 1962.0, 1932.0, 1996.0, 2023.0, 2012.0, 1959.0, 1940.0, 1955.0, 1970.0, 1960.0, 1925.0, 1936.0, 1947.0, 1960.0, 1914.0, 1918.0, 1942.0]

--- FULL SPECTRUM DATA (one value per line) ---
0	1923.0
1	1892.0
2	1906.0
3	1909.0
4	1946.0
5	1958.0
6	1954.0
7	1919.0
8	1911.0
9	1931.0
10	1933.0
11	1927.0
12	1937.0
13	1944.0
14	1959.0
15	1963.0
16	1953.0
17	1963.0
18	1970.0
19	1966.0
20	1945.0
21	1957.0
22	1969.0
23	1970.0
24	1930.0
25	1932.0
26	1959.0
27	1975.0
28	1954.0
29	1904.0
30	1943.0
31	1965.0
32	1970.0
33	1942.0
34	1947.0
35	1944.0
36	1939.0
37	1937.0
38	1955.0
39	1939.0
40	1963.0
41	1984.0
42	1979.0
43	1982.0
44	1995.0
45	1981.0
46	1945.0
47	1970.0
48	1963.0
49	1964.0
50	1960.0
51	1978.0
52	1948.0
53	1924.0
54	1924.0
55	1923.0
56	1971.0
57	1995.0
58	1999.0
59	1968.0
60	1958.0
61	1950.0
62	1962.0
63	1935.0
64	1923.0
65	1929.0
66	1984.0
67	1988.0
68	1964.0
69	1964.0
70	1956.0
71	1972.0
72	1976.0
73	1961.0
74	1954.0
75	1949.0
76	1912.0
77	1917.0
78	1919.0
79	1951.0
80	1974.0
81	1932.0
82	1927.0
83	1939.0
84	2152.0
85	2165.0
86	2052.0
87	2007.0
88	2005.0
89	2004.0
90	1976.0
91	1970.0
92	1999.0
93	2009.0
94	2000.0
95	1992.0
96	1955.0
97	1958.0
98	1949.0
99	1947.0
100	1951.0
101	1958.0
102	1941.0
103	1926.0
104	1937.0
105	1963.0
106	1947.0
107	1930.0
108	1962.0
109	1968.0
110	1952.0
111	1919.0
112	1929.0
113	1940.0
114	1977.0
115	1968.0
116	1971.0
117	1954.0
118	1957.0
119	1955.0
120	1930.0
121	1949.0
122	1970.0
123	1994.0
124	1975.0
125	1993.0
126	1998.0
127	1998.0
128	1999.0
129	1969.0
130	1934.0
131	1952.0
132	1976.0
133	1961.0
134	1966.0
135	1966.0
136	1984.0
137	1954.0
138	1954.0
139	1945.0
140	1959.0
141	2053.0
142	2064.0
143	2005.0
144	1954.0
145	1944.0
146	1968.0
147	1992.0
148	1986.0
149	1962.0
150	1927.0
151	1929.0
152	1937.0
153	1948.0
154	1943.0
155	1936.0
156	1930.0
157	1930.0
158	1927.0
159	1917.0
160	1930.0
161	1925.0
162	1976.0
163	1978.0
164	1977.0
165	1969.0
166	1952.0
167	1949.0
168	1957.0
169	1947.0
170	1953.0
171	1947.0
172	1938.0
173	1964.0
174	1983.0
175	1978.0
176	1947.0
177	1933.0
178	1944.0
179	1969.0
180	1927.0
181	1903.0
182	1921.0
183	1957.0
184	1954.0
185	1932.0
186	1946.0
187	1952.0
188	1972.0
189	1999.0
190	1996.0
191	1952.0
192	1952.0
193	1939.0
194	1931.0
195	1952.0
196	1946.0
197	1971.0
198	1976.0
199	1968.0
200	1964.0
201	1966.0
202	1937.0
203	1937.0
204	1935.0
205	1942.0
206	1924.0
207	1908.0
208	1905.0
209	1923.0
210	1932.0
211	1928.0
212	1949.0
213	1949.0
214	1982.0
215	1955.0
216	1933.0
217	1943.0
218	1944.0
219	1938.0
220	1938.0
221	1956.0
222	1936.0
223	1947.0
224	1955.0
225	1948.0
226	1945.0
227	1957.0
228	1930.0
229	1925.0
230	1928.0
231	1957.0
232	1954.0
233	1973.0
234	1973.0
235	1966.0
236	1973.0
237	1944.0
238	1942.0
239	1936.0
240	1934.0
241	2008.0
242	2050.0
243	2016.0
244	2010.0
245	1992.0
246	1973.0
247	2013.0
248	2019.0
249	2000.0
250	1957.0
251	1948.0
252	1927.0
253	1936.0
254	1943.0
255	1973.0
256	1982.0
257	1962.0
258	1949.0
259	1972.0
260	1980.0
261	1945.0
262	1934.0
263	1939.0
264	1962.0
265	1998.0
266	2000.0
267	1968.0
268	1973.0
269	1982.0
270	1983.0
271	1966.0
272	1959.0
273	1978.0
274	1954.0
275	1929.0
276	1917.0
277	1946.0
278	1947.0
279	1959.0
280	1941.0
281	1964.0
282	1975.0
283	1973.0
284	1966.0
285	1978.0
286	1962.0
287	1952.0
288	1966.0
289	1935.0
290	1953.0
291	1941.0
292	1927.0
293	1927.0
294	1942.0
295	1959.0
296	1959.0
297	1969.0
298	1978.0
299	1992.0
300	1978.0
301	2008.0
302	1999.0
303	1983.0
304	1959.0
305	1954.0
306	1920.0
307	1931.0
308	1935.0
309	1958.0
310	1953.0
311	1935.0
312	1948.0
313	1962.0
314	1936.0
315	1918.0
316	1959.0
317	1974.0
318	1988.0
319	1939.0
320	1948.0
321	1966.0
322	1953.0
323	1936.0
324	1886.0
325	1891.0
326	1912.0
327	1946.0
328	1962.0
329	1968.0
330	1977.0
331	1984.0
332	1978.0
333	1970.0
334	1950.0
335	1953.0
336	1975.0
337	1970.0
338	1961.0
339	1958.0
340	1980.0
341	1985.0
342	1988.0
343	1974.0
344	1960.0
345	1932.0
346	1919.0
347	1921.0
348	1919.0
349	1928.0
350	1928.0
351	1946.0
352	1954.0
353	1969.0
354	1949.0
355	1935.0
356	1914.0
357	1913.0
358	1911.0
359	1932.0
360	1934.0
361	1971.0
362	1968.0
363	1940.0
364	1956.0
365	1961.0
366	1948.0
367	1940.0
368	1949.0
369	1942.0
370	1963.0
371	1965.0
372	1979.0
373	1960.0
374	1943.0
375	1963.0
376	1950.0
377	1969.0
378	1959.0
379	1950.0
380	1969.0
381	1968.0
382	1940.0
383	1930.0
384	1944.0
385	1947.0
386	1934.0
387	1948.0
388	1945.0
389	1934.0
390	1933.0
391	1972.0
392	1987.0
393	1967.0
394	1981.0
395	1967.0
396	1975.0
397	1950.0
398	1930.0
399	1928.0
400	1934.0
401	1940.0
402	1913.0
403	1927.0
404	1964.0
405	1989.0
406	1971.0
407	1962.0
408	1927.0
409	1919.0
410	1918.0
411	1960.0
412	1952.0
413	1921.0
414	1935.0
415	1934.0
416	1935.0
417	1934.0
418	1961.0
419	1976.0
420	1986.0
421	1970.0
422	1990.0
423	1969.0
424	1955.0
425	1952.0
426	1950.0
427	1956.0
428	1930.0
429	1941.0
430	1942.0
431	1935.0
432	1930.0
433	1953.0
434	1939.0
435	1941.0
436	1954.0
437	1959.0
438	1952.0
439	1939.0
440	1968.0
441	1980.0
442	1987.0
443	1971.0
444	1960.0
445	1958.0
446	1964.0
447	1951.0
448	1973.0
449	1959.0
450	1961.0
451	1955.0
452	1976.0
453	1981.0
454	1979.0
455	1987.0
456	1964.0
457	1961.0
458	1957.0
459	1949.0
460	1953.0
461	1961.0
462	1951.0
463	1963.0
464	1946.0
465	1940.0
466	1932.0
467	1945.0
468	1953.0
469	1951.0
470	1966.0
471	1947.0
472	1961.0
473	1963.0
474	1991.0
475	1983.0
476	1974.0
477	1950.0
478	1945.0
479	1988.0
480	1980.0
481	1974.0
482	1962.0
483	1956.0
484	1909.0
485	1917.0
486	1927.0
487	1921.0
488	1911.0
489	1917.0
490	1893.0
491	1917.0
492	1942.0
493	1924.0
494	1925.0
495	1925.0
496	1943.0
497	1935.0
498	1967.0
499	1958.0
500	1974.0
501	1968.0
502	1941.0
503	1933.0
504	1957.0
505	1958.0
506	1927.0
507	1940.0
508	1968.0
509	1993.0
510	1974.0
511	1959.0
512	1953.0
513	1961.0
514	1954.0
515	1958.0
516	1941.0
517	1949.0
518	2002.0
519	2027.0
520	1980.0
521	1973.0
522	1949.0
523	1926.0
524	1940.0
525	1934.0
526	1966.0
527	1959.0
528	1946.0
529	1969.0
530	1963.0
531	1967.0
532	1945.0
533	1944.0
534	1933.0
535	1934.0
536	1941.0
537	1962.0
538	1958.0
539	1947.0
540	1948.0
541	1950.0
542	1934.0
543	1944.0
544	1957.0
545	1931.0
546	1935.0
547	1965.0
548	1968.0
549	1930.0
550	1955.0
551	1951.0
552	1966.0
553	1963.0
554	1966.0
555	1979.0
556	1945.0
557	1969.0
558	1969.0
559	1951.0
560	1932.0
561	1922.0
562	1907.0
563	1923.0
564	1935.0
565	1947.0
566	1927.0
567	1945.0
568	1938.0
569	1941.0
570	1935.0
571	1933.0
572	1945.0
573	1937.0
574	1930.0
575	1920.0
576	1940.0
577	1947.0
578	1967.0
579	1946.0
580	1942.0
581	1950.0
582	1946.0
583	1942.0
584	1936.0
585	1961.0
586	1941.0
587	1945.0
588	1930.0
589	1918.0
590	1906.0
591	1925.0
592	1960.0
593	1938.0
594	1911.0
595	1902.0
596	1960.0
597	1974.0
598	1946.0
599	1926.0
600	1934.0
601	1961.0
602	1962.0
603	1951.0
604	1966.0
605	1964.0
606	1971.0
607	1972.0
608	1927.0
609	1977.0
610	2002.0
611	2001.0
612	1987.0
613	1964.0
614	1955.0
615	1969.0
616	1933.0
617	1935.0
618	1938.0
619	1937.0
620	1952.0
621	1971.0
622	1967.0
623	1944.0
624	1941.0
625	1947.0
626	1969.0
627	1962.0
628	1975.0
629	1970.0
630	1946.0
631	1941.0
632	1962.0
633	1974.0
634	1973.0
635	1969.0
636	1922.0
637	1935.0
638	2028.0
639	2074.0
640	2009.0
641	1986.0
642	1976.0
643	1960.0
644	1956.0
645	1941.0
646	1954.0
647	1972.0
648	1980.0
649	1941.0
650	1920.0
651	1923.0
652	1929.0
653	1898.0
654	1910.0
655	1917.0
656	1937.0
657	1953.0
658	1977.0
659	1972.0
660	1950.0
661	1954.0
662	1958.0
663	1977.0
664	1965.0
665	1939.0
666	1914.0
667	1930.0
668	1922.0
669	1934.0
670	1930.0
671	1931.0
672	1916.0
673	1917.0
674	1928.0
675	1930.0
676	1945.0
677	1944.0
678	1957.0
679	1948.0
680	1967.0
681	1966.0
682	1948.0
683	1943.0
684	1945.0
685	1922.0
686	1907.0
687	1933.0
688	1974.0
689	1989.0
690	1941.0
691	1928.0
692	1916.0
693	1954.0
694	1962.0
695	1927.0
696	1927.0
697	1924.0
698	1936.0
699	1944.0
700	1977.0
701	1955.0
702	1937.0
703	1933.0
704	1940.0
705	1937.0
706	1958.0
707	1951.0
708	1950.0
709	1967.0
710	1963.0
711	1958.0
712	1948.0
713	1931.0
714	1889.0
715	1923.0
716	1965.0
717	2004.0
718	1979.0
719	1975.0
720	1964.0
721	1960.0
722	1945.0
723	1918.0
724	1925.0
725	1956.0
726	1957.0
727	1955.0
728	1964.0
729	1953.0
730	1955.0
731	1926.0
732	1940.0
733	1935.0
734	1958.0
735	1958.0
736	1955.0
737	1965.0
738	1969.0
739	1953.0
740	1938.0
741	1946.0
742	1929.0
743	1929.0
744	1923.0
745	1953.0
746	1972.0
747	2005.0
748	2010.0
749	1959.0
750	1937.0
751	1913.0
752	1950.0
753	1984.0
754	1985.0
755	1988.0
756	1994.0
757	2003.0
758	2003.0
759	1986.0
760	1972.0
761	1960.0
762	1954.0
763	1957.0
764	1964.0
765	1969.0
766	1955.0
767	1997.0
768	2003.0
769	1967.0
770	1923.0
771	1931.0
772	1950.0
773	1925.0
774	1912.0
775	1891.0
776	1932.0
777	1933.0
778	1931.0
779	1946.0
780	1954.0
781	1926.0
782	1921.0
783	1913.0
784	1906.0
785	1904.0
786	1934.0
787	1933.0
788	1929.0
789	1953.0
790	1950.0
791	1966.0
792	1972.0
793	1977.0
794	1922.0
795	1921.0
796	1921.0
797	1932.0
798	1940.0
799	1955.0
800	1979.0
801	1967.0
802	1953.0
803	1960.0
804	1983.0
805	1980.0
806	1985.0
807	1953.0
808	1948.0
809	1942.0
810	1957.0
811	1965.0
812	1979.0
813	2004.0
814	1982.0
815	1964.0
816	1944.0
817	1956.0
818	1949.0
819	1964.0
820	1962.0
821	1964.0
822	1965.0
823	1960.0
824	1952.0
825	1937.0
826	1934.0
827	1919.0
828	1950.0
829	1944.0
830	1952.0
831	1945.0
832	1952.0
833	1966.0
834	1988.0
835	1967.0
836	1938.0
837	1931.0
838	1938.0
839	1930.0
840	1932.0
841	1928.0
842	1938.0
843	1973.0
844	1945.0
845	1937.0
846	1962.0
847	1985.0
848	1960.0
849	1964.0
850	1971.0
851	1971.0
852	1979.0
853	1946.0
854	1917.0
855	1986.0
856	2047.0
857	2001.0
858	1992.0
859	1977.0
860	1978.0
861	1961.0
862	1963.0
863	1952.0
864	1974.0
865	1987.0
866	1951.0
867	1942.0
868	1941.0
869	1948.0
870	1936.0
871	1969.0
872	1973.0
873	1974.0
874	1961.0
875	1973.0
876	1997.0
877	1988.0
878	1968.0
879	1927.0
880	1972.0
881	1969.0
882	1960.0
883	1928.0
884	1909.0
885	1920.0
886	1945.0
887	1940.0
888	1960.0
889	1955.0
890	1940.0
891	1940.0
892	1910.0
893	1920.0
894	1918.0
895	1935.0
896	1944.0
897	1962.0
898	1938.0
899	1953.0
900	1984.0
901	1987.0
902	1984.0
903	1995.0
904	1993.0
905	1947.0
906	1959.0
907	1972.0
908	2019.0
909	1993.0
910	1986.0
911	1947.0
912	1915.0
913	1926.0
914	1950.0
915	1945.0
916	1927.0
917	1996.0
918	2001.0
919	1981.0
920	1953.0
921	1940.0
922	1943.0
923	1974.0
924	1936.0
925	1945.0
926	1918.0
927	1916.0
928	1924.0
929	1940.0
930	1952.0
931	1940.0
932	1973.0
933	1978.0
934	1980.0
935	1957.0
936	1970.0
937	1957.0
938	1960.0
939	1933.0
940	1942.0
941	1951.0
942	1942.0
943	1937.0
944	1931.0
945	1941.0
946	1932.0
947	1954.0
948	1961.0
949	1953.0
950	1967.0
951	1970.0
952	1955.0
953	1938.0
954	1954.0
955	1976.0
956	1995.0
957	1958.0
958	1951.0
959	1939.0
960	1962.0
961	1966.0
962	1948.0
963	1919.0
964	1925.0
965	1934.0
966	1959.0
967	1960.0
968	1974.0
969	1965.0
970	1944.0
971	1954.0
972	1921.0
973	1949.0
974	1951.0
975	1940.0
976	1926.0
977	1951.0
978	1964.0
979	1958.0
980	1932.0
981	1935.0
982	1934.0
983	1974.0
984	2012.0
985	1983.0
986	1968.0
987	1926.0
988	1944.0
989	1950.0
990	1972.0
991	1976.0
992	1966.0
993	1992.0
994	2003.0
995	2005.0
996	1980.0
997	1978.0
998	1973.0
999	1949.0
1000	1916.0
1001	1933.0
1002	1940.0
1003	1969.0
1004	2000.0
1005	1995.0
1006	1949.0
1007	1947.0
1008	1976.0
1009	1960.0
1010	1952.0
1011	1926.0
1012	1922.0
1013	1907.0
1014	1920.0
1015	1934.0
1016	1937.0
1017	1945.0
1018	1944.0
1019	1963.0
1020	1956.0
1021	1989.0
1022	1997.0
1023	1996.0
1024	2000.0
1025	2015.0
1026	1974.0
1027	1969.0
1028	1961.0
1029	1956.0
1030	1944.0
1031	1970.0
1032	1992.0
1033	1979.0
1034	1987.0
1035	1951.0
1036	1967.0
1037	1995.0
1038	2025.0
1039	2005.0
1040	2000.0
1041	2012.0
1042	2016.0
1043	2024.0
1044	2028.0
1045	2012.0
1046	2005.0
1047	2047.0
1048	2031.0
1049	1987.0
1050	1950.0
1051	1957.0
1052	1946.0
1053	1964.0
1054	1967.0
1055	1993.0
1056	1956.0
1057	1952.0
1058	1983.0
1059	1999.0
1060	2007.0
1061	1994.0
1062	2013.0
1063	2033.0
1064	2047.0
1065	2027.0
1066	1981.0
1067	1967.0
1068	1968.0
1069	1990.0
1070	2020.0
1071	2009.0
1072	2010.0
1073	2025.0
1074	2036.0
1075	2015.0
1076	1994.0
1077	2005.0
1078	2000.0
1079	2013.0
1080	2011.0
1081	1985.0
1082	1962.0
1083	1960.0
1084	1969.0
1085	1985.0
1086	2022.0
1087	2005.0
1088	2046.0
1089	2030.0
1090	2005.0
1091	2004.0
1092	2022.0
1093	2015.0
1094	2026.0
1095	2006.0
1096	1994.0
1097	2029.0
1098	2020.0
1099	2026.0
1100	1979.0
1101	2052.0
1102	2071.0
1103	2032.0
1104	1992.0
1105	2005.0
1106	2025.0
1107	2022.0
1108	2034.0
1109	2034.0
1110	2040.0
1111	2041.0
1112	2023.0
1113	1987.0
1114	1972.0
1115	1972.0
1116	1980.0
1117	1970.0
1118	1990.0
1119	1978.0
1120	1977.0
1121	1994.0
1122	2047.0
1123	2040.0
1124	1994.0
1125	2015.0
1126	2033.0
1127	2024.0
1128	1989.0
1129	1969.0
1130	1979.0
1131	2025.0
1132	2017.0
1133	2007.0
1134	1990.0
1135	1995.0
1136	2009.0
1137	2029.0
1138	2036.0
1139	2014.0
1140	2028.0
1141	2077.0
1142	2102.0
1143	2045.0
1144	2030.0
1145	2053.0
1146	2051.0
1147	2033.0
1148	2023.0
1149	2060.0
1150	2052.0
1151	2052.0
1152	2062.0
1153	2046.0
1154	1999.0
1155	2004.0
1156	2035.0
1157	2062.0
1158	2037.0
1159	2032.0
1160	2031.0
1161	2011.0
1162	2019.0
1163	2010.0
1164	2035.0
1165	2032.0
1166	2042.0
1167	2051.0
1168	2050.0
1169	2018.0
1170	2013.0
1171	2019.0
1172	1995.0
1173	1982.0
1174	1997.0
1175	2049.0
1176	2064.0
1177	2076.0
1178	2058.0
1179	2047.0
1180	2033.0
1181	2045.0
1182	2067.0
1183	2088.0
1184	2048.0
1185	2042.0
1186	2047.0
1187	2020.0
1188	2018.0
1189	2029.0
1190	2047.0
1191	2013.0
1192	2038.0
1193	2046.0
1194	2070.0
1195	2050.0
1196	2051.0
1197	2047.0
1198	2029.0
1199	2020.0
1200	2017.0
1201	2026.0
1202	2031.0
1203	2068.0
1204	2044.0
1205	2028.0
1206	2038.0
1207	2078.0
1208	2091.0
1209	2093.0
1210	2049.0
1211	2028.0
1212	2038.0
1213	2041.0
1214	2048.0
1215	2063.0
1216	2072.0
1217	2027.0
1218	2037.0
1219	2028.0
1220	2031.0
1221	2039.0
1222	2026.0
1223	2014.0
1224	2004.0
1225	2015.0
1226	1997.0
1227	1998.0
1228	2026.0
1229	2033.0
1230	2005.0
1231	2064.0
1232	2061.0
1233	2051.0
1234	2048.0
1235	2044.0
1236	2028.0
1237	2017.0
1238	2011.0
1239	1997.0
1240	2019.0
1241	2020.0
1242	2038.0
1243	2035.0
1244	2033.0
1245	2016.0
1246	2028.0
1247	1985.0
1248	1996.0
1249	2021.0
1250	2058.0
1251	2047.0
1252	2024.0
1253	2043.0
1254	2044.0
1255	2040.0
1256	2011.0
1257	2020.0
1258	2029.0
1259	2057.0
1260	2035.0
1261	2041.0
1262	2046.0
1263	2049.0
1264	2027.0
1265	2017.0
1266	2011.0
1267	2013.0
1268	2016.0
1269	1995.0
1270	1999.0
1271	2002.0
1272	2025.0
1273	2027.0
1274	2026.0
1275	2033.0
1276	2050.0
1277	2028.0
1278	1987.0
1279	1988.0
1280	1968.0
1281	1985.0
1282	1968.0
1283	1949.0
1284	1952.0
1285	1961.0
1286	1962.0
1287	1979.0
1288	1954.0
1289	1934.0
1290	1943.0
1291	1953.0
1292	1978.0
1293	1964.0
1294	1954.0
1295	1940.0
1296	1933.0
1297	1941.0
1298	1944.0
1299	1897.0
1300	1904.0
1301	1929.0
1302	1943.0
1303	1931.0
1304	1918.0
1305	1938.0
1306	1921.0
1307	1937.0
1308	1936.0
1309	1963.0
1310	1953.0
1311	1976.0
1312	1949.0
1313	1939.0
1314	1958.0
1315	1977.0
1316	1955.0
1317	1957.0
1318	1980.0
1319	1995.0
1320	2012.0
1321	1988.0
1322	1968.0
1323	1951.0
1324	1972.0
1325	1958.0
1326	1958.0
1327	1970.0
1328	1975.0
1329	1998.0
1330	1961.0
1331	1943.0
1332	1951.0
1333	1961.0
1334	1951.0
1335	1986.0
1336	1975.0
1337	1953.0
1338	1963.0
1339	2018.0
1340	2000.0
1341	1985.0
1342	1981.0
1343	1981.0
1344	1973.0
1345	1961.0
1346	1961.0
1347	1933.0
1348	1936.0
1349	1958.0
1350	1953.0
1351	1916.0
1352	1926.0
1353	1959.0
1354	1967.0
1355	1950.0
1356	1923.0
1357	1966.0
1358	1968.0
1359	1936.0
1360	1906.0
1361	1931.0
1362	1930.0
1363	1943.0
1364	1964.0
1365	2019.0
1366	1992.0
1367	1979.0
1368	1986.0
1369	1975.0
1370	1976.0
1371	1980.0
1372	1983.0
1373	1946.0
1374	1965.0
1375	1972.0
1376	1998.0
1377	1977.0
1378	1958.0
1379	1927.0
1380	1934.0
1381	1973.0
1382	1959.0
1383	1954.0
1384	1928.0
1385	1913.0
1386	1894.0
1387	1908.0
1388	1902.0
1389	1930.0
1390	1924.0
1391	1945.0
1392	1929.0
1393	1952.0
1394	1945.0
1395	1921.0
1396	1920.0
1397	1927.0
1398	1956.0
1399	1964.0
1400	2063.0
1401	2068.0
1402	2009.0
1403	1953.0
1404	1977.0
1405	1994.0
1406	1991.0
1407	1988.0
1408	1967.0
1409	1979.0
1410	1979.0
1411	1953.0
1412	1943.0
1413	1954.0
1414	1931.0
1415	1920.0
1416	1907.0
1417	1918.0
1418	1923.0
1419	1959.0
1420	1952.0
1421	1922.0
1422	1926.0
1423	1937.0
1424	1964.0
1425	1930.0
1426	1946.0
1427	1948.0
1428	1950.0
1429	1953.0
1430	1973.0
1431	1965.0
1432	1948.0
1433	1956.0
1434	1961.0
1435	1978.0
1436	1964.0
1437	1972.0
1438	1965.0
1439	1995.0
1440	1991.0
1441	1995.0
1442	1983.0
1443	1998.0
1444	1964.0
1445	1958.0
1446	1964.0
1447	1967.0
1448	1986.0
1449	1981.0
1450	1952.0
1451	1902.0
1452	1923.0
1453	1934.0
1454	1936.0
1455	1913.0
1456	1921.0
1457	1913.0
1458	1900.0
1459	1960.0
1460	1989.0
1461	2006.0
1462	2003.0
1463	1985.0
1464	1979.0
1465	1983.0
1466	1957.0
1467	1944.0
1468	1913.0
1469	1931.0
1470	1959.0
1471	1968.0
1472	1944.0
1473	1946.0
1474	1950.0
1475	1965.0
1476	1962.0
1477	1916.0
1478	1923.0
1479	1922.0
1480	1931.0
1481	1949.0
1482	1965.0
1483	1964.0
1484	1955.0
1485	1949.0
1486	1943.0
1487	1961.0
1488	1943.0
1489	1941.0
1490	1933.0
1491	1950.0
1492	1944.0
1493	1928.0
1494	1956.0
1495	1963.0
1496	1935.0
1497	1928.0
1498	1945.0
1499	1953.0
1500	1938.0
1501	1913.0
1502	1939.0
1503	1947.0
1504	1957.0
1505	1952.0
1506	1994.0
1507	1989.0
1508	2012.0
1509	2035.0
1510	1987.0
1511	1965.0
1512	1977.0
1513	1974.0
1514	1982.0
1515	2009.0
1516	1976.0
1517	1953.0
1518	1970.0
1519	1975.0
1520	1947.0
1521	1952.0
1522	1946.0
1523	1963.0
1524	1984.0
1525	1960.0
1526	1956.0
1527	1945.0
1528	1958.0
1529	1948.0
1530	1965.0
1531	1963.0
1532	1983.0
1533	1980.0
1534	1968.0
1535	1938.0
1536	1961.0
1537	1989.0
1538	1953.0
1539	1937.0
1540	1913.0
1541	1893.0
1542	1879.0
1543	1918.0
1544	1941.0
1545	1934.0
1546	1916.0
1547	1913.0
1548	1900.0
1549	1923.0
1550	1960.0
1551	1945.0
1552	1950.0
1553	1950.0
1554	1949.0
1555	1934.0
1556	1950.0
1557	1957.0
1558	1949.0
1559	1930.0
1560	1937.0
1561	1936.0
1562	1917.0
1563	1929.0
1564	1930.0
1565	1969.0
1566	1964.0
1567	1971.0
1568	1951.0
1569	1948.0
1570	1939.0
1571	1953.0
1572	1959.0
1573	1978.0
1574	1988.0
1575	1970.0
1576	1942.0
1577	1932.0
1578	1950.0
1579	1961.0
1580	1966.0
1581	1944.0
1582	1970.0
1583	1964.0
1584	1967.0
1585	1965.0
1586	1957.0
1587	1932.0
1588	1934.0
1589	1964.0
1590	1963.0
1591	1967.0
1592	2001.0
1593	2023.0
1594	1993.0
1595	1978.0
1596	1945.0
1597	1950.0
1598	1964.0
1599	1959.0
1600	1945.0
1601	1922.0
1602	1921.0
1603	1938.0
1604	1958.0
1605	1960.0
1606	1959.0
1607	1961.0
1608	1939.0
1609	1924.0
1610	1924.0
1611	1924.0
1612	1946.0
1613	1926.0
1614	1924.0
1615	1943.0
1616	1922.0
1617	1980.0
1618	1975.0
1619	1973.0
1620	1956.0
1621	1934.0
1622	1918.0
1623	1910.0
1624	1917.0
1625	1953.0
1626	1941.0
1627	1933.0
1628	1964.0
1629	1970.0
1630	1951.0
1631	1951.0
1632	1967.0
1633	1956.0
1634	1967.0
1635	1948.0
1636	1950.0
1637	1948.0
1638	1983.0
1639	1973.0
1640	1941.0
1641	1937.0
1642	1926.0
1643	1949.0
1644	1931.0
1645	1948.0
1646	1943.0
1647	1967.0
1648	1965.0
1649	1951.0
1650	1932.0
1651	1938.0
1652	1943.0
1653	1963.0
1654	1979.0
1655	1972.0
1656	2000.0
1657	2003.0
1658	1968.0
1659	1920.0
1660	1922.0
1661	1935.0
1662	1950.0
1663	1938.0
1664	1944.0
1665	1957.0
1666	1958.0
1667	1975.0
1668	1962.0
1669	1952.0
1670	1941.0
1671	1927.0
1672	1931.0
1673	1967.0
1674	1972.0
1675	1979.0
1676	1976.0
1677	1969.0
1678	1948.0
1679	1936.0
1680	1940.0
1681	1939.0
1682	1960.0
1683	1970.0
1684	1974.0
1685	1942.0
1686	1927.0
1687	1931.0
1688	1943.0
1689	1944.0
1690	1984.0
1691	1991.0
1692	1992.0
1693	1976.0
1694	1939.0
1695	1959.0
1696	1954.0
1697	1942.0
1698	1902.0
1699	1913.0
1700	1925.0
1701	1913.0
1702	1907.0
1703	1921.0
1704	1924.0
1705	1946.0
1706	1956.0
1707	1938.0
1708	1949.0
1709	1919.0
1710	1909.0
1711	1900.0
1712	1919.0
1713	1910.0
1714	1934.0
1715	1935.0
1716	1952.0
1717	2014.0
1718	2040.0
1719	2016.0
1720	1980.0
1721	1964.0
1722	1932.0
1723	1985.0
1724	2011.0
1725	1977.0
1726	1951.0
1727	1946.0
1728	1905.0
1729	1902.0
1730	1908.0
1731	1944.0
1732	1991.0
1733	1982.0
1734	1984.0
1735	1983.0
1736	1969.0
1737	1936.0
1738	1941.0
1739	1955.0
1740	1978.0
1741	1963.0
1742	1940.0
1743	1948.0
1744	1949.0
1745	1968.0
1746	1952.0
1747	1956.0
1748	1935.0
1749	1926.0
1750	1936.0
1751	1963.0
1752	1975.0
1753	1973.0
1754	1982.0
1755	1993.0
1756	1985.0
1757	1969.0
1758	1973.0
1759	1955.0
1760	1955.0
1761	1928.0
1762	1948.0
1763	1946.0
1764	1957.0
1765	1943.0
1766	1955.0
1767	1975.0
1768	1983.0
1769	1952.0
1770	1924.0
1771	1938.0
1772	1938.0
1773	1953.0
1774	1933.0
1775	1953.0
1776	1939.0
1777	1953.0
1778	1970.0
1779	1989.0
1780	1960.0
1781	1930.0
1782	1936.0
1783	1959.0
1784	1979.0
1785	1951.0
1786	1944.0
1787	1948.0
1788	1950.0
1789	1949.0
1790	1950.0
1791	1935.0
1792	1933.0
1793	1949.0
1794	1962.0
1795	1950.0
1796	1962.0
1797	1955.0
1798	1949.0
1799	1970.0
1800	1961.0
1801	1982.0
1802	1945.0
1803	1940.0
1804	1959.0
1805	1959.0
1806	1953.0
1807	1958.0
1808	1971.0
1809	1956.0
1810	1929.0
1811	1972.0
1812	2013.0
1813	1996.0
1814	1993.0
1815	1937.0
1816	1932.0
1817	1950.0
1818	1969.0
1819	1979.0
1820	1997.0
1821	1971.0
1822	1934.0
1823	1936.0
1824	1952.0
1825	1995.0
1826	1986.0
1827	1973.0
1828	1968.0
1829	1956.0
1830	1913.0
1831	1902.0
1832	1913.0
1833	1905.0
1834	1923.0
1835	1938.0
1836	1935.0
1837	1917.0
1838	1943.0
1839	1962.0
1840	1957.0
1841	1917.0
1842	1908.0
1843	1908.0
1844	1972.0
1845	1982.0
1846	1953.0
1847	1932.0
1848	1951.0
1849	1959.0
1850	1922.0
1851	1921.0
1852	1920.0
1853	1951.0
1854	1980.0
1855	1970.0
1856	1940.0
1857	1945.0
1858	1949.0
1859	1958.0
1860	1964.0
1861	1947.0
1862	1964.0
1863	1977.0
1864	1966.0
1865	1965.0
1866	1971.0
1867	1955.0
1868	1961.0
1869	2007.0
1870	2026.0
1871	1985.0
1872	1961.0
1873	1933.0
1874	1911.0
1875	1934.0
1876	1917.0
1877	1923.0
1878	1897.0
1879	1920.0
1880	1924.0
1881	1936.0
1882	1932.0
1883	1932.0
1884	1925.0
1885	1914.0
1886	1932.0
1887	1948.0
1888	1944.0
1889	1945.0
1890	1980.0
1891	1961.0
1892	1942.0
1893	1938.0
1894	1946.0
1895	1923.0
1896	1958.0
1897	1984.0
1898	1969.0
1899	1950.0
1900	2104.0
1901	2143.0
1902	2050.0
1903	1993.0
1904	1950.0
1905	1960.0
1906	1949.0
1907	1970.0
1908	1960.0
1909	1966.0
1910	1973.0
1911	1944.0
1912	1970.0
1913	1998.0
1914	2004.0
1915	2010.0
1916	1999.0
1917	1976.0
1918	1946.0
1919	1924.0
1920	1963.0
1921	1965.0
1922	1963.0
1923	1936.0
1924	1946.0
1925	1956.0
1926	1957.0
1927	1941.0
1928	1918.0
1929	1910.0
1930	1906.0
1931	1941.0
1932	1962.0
1933	1966.0
1934	1942.0
1935	1959.0
1936	1977.0
1937	1951.0
1938	1967.0
1939	1964.0
1940	1970.0
1941	1956.0
1942	1941.0
1943	1957.0
1944	1956.0
1945	1916.0
1946	1913.0
1947	1936.0
1948	1946.0
1949	1941.0
1950	1961.0
1951	1975.0
1952	1959.0
1953	1971.0
1954	1950.0
1955	1967.0
1956	1978.0
1957	1973.0
1958	1957.0
1959	1948.0
1960	1929.0
1961	1930.0
1962	1958.0
1963	1958.0
1964	1944.0
1965	1961.0
1966	1949.0
1967	1926.0
1968	1937.0
1969	1941.0
1970	1949.0
1971	1936.0
1972	1962.0
1973	1988.0
1974	1982.0
1975	1951.0
1976	1942.0
1977	1941.0
1978	1943.0
1979	1952.0
1980	1937.0
1981	1956.0
1982	1927.0
1983	1928.0
1984	1927.0
1985	1959.0
1986	1976.0
1987	1961.0
1988	1936.0
1989	1920.0
1990	1959.0
1991	1983.0
1992	1976.0
1993	1956.0
1994	1951.0
1995	1954.0
1996	1994.0
1997	2002.0
1998	1996.0
1999	1977.0
2000	1956.0
2001	1940.0
2002	1936.0
2003	1950.0
2004	1954.0
2005	1969.0
2006	1938.0
2007	1934.0
2008	1940.0
2009	1954.0
2010	1965.0
2011	1965.0
2012	1938.0
2013	1916.0
2014	1916.0
2015	1926.0
2016	1960.0
2017	1963.0
2018	1981.0
2019	1959.0
2020	1971.0
2021	1934.0
2022	1934.0
2023	1936.0
2024	1943.0
2025	1943.0
2026	2010.0
2027	2108.0
2028	2084.0
2029	2052.0
2030	2009.0
2031	1962.0
2032	1932.0
2033	1996.0
2034	2023.0
2035	2012.0
2036	1959.0
2037	1940.0
2038	1955.0
2039	1970.0
2040	1960.0
2041	1925.0
2042	1936.0
2043	1947.0
2044	1960.0
2045	1914.0
2046	1918.0
2047	1942.0
