================================================================================
RAMAN SPECTROMETER DEBUG LOG
Timestamp: 2026-01-19T15:08:15.828445
================================================================================

--- CONFIGURATION ---
Port: /dev/ttyUSB0
Baudrate: 9600
Integration time: 2000 ms
Timeout: 10.0 s
Expected data points: 2048
Min data points: 2048

--- RAW DATA INFO ---
Total bytes received: 14371
Null bytes count: 1

--- RAW BYTES (first 500, hex) ---
61 0d 0a 41 43 4b 0d 0a 0d 0a 49 32 30 30 30 0d 
0a 41 43 4b 0d 0a 0d 0a 53 0d 0a 41 43 4b 0d 0a 
30 31 39 37 34 0d 0a 30 31 39 38 32 0d 0a 30 32 
30 30 33 0d 0a 30 32 30 33 35 0d 0a 30 31 39 39 
36 0d 0a 30 31 39 36 38 0d 0a 30 31 39 36 35 0d 
0a 30 31 39 37 31 0d 0a 30 31 39 38 34 0d 0a 30 
32 30 30 32 0d 0a 30 32 30 31 31 0d 0a 30 32 30 
32 32 0d 0a 30 31 39 38 32 0d 0a 30 31 39 37 37 
0d 0a 30 31 39 38 31 0d 0a 30 32 32 31 31 0d 0a 
30 32 32 36 35 0d 0a 30 32 31 37 39 0d 0a 30 32 
31 33 35 0d 0a 30 32 30 38 34 0d 0a 30 32 30 38 
35 0d 0a 30 32 30 38 35 0d 0a 30 32 31 38 30 0d 
0a 30 32 31 38 32 0d 0a 30 32 31 36 34 0d 0a 30 
32 31 30 35 0d 0a 30 32 30 39 33 0d 0a 30 32 31 
30 32 0d 0a 30 32 30 39 37 0d 0a 30 32 31 31 36 
0d 0a 30 32 33 31 37 0d 0a 30 32 34 30 36 0d 0a 
30 32 32 35 38 0d 0a 30 32 31 35 35 0d 0a 30 32 
31 30 31 0d 0a 30 32 30 36 31 0d 0a 30 32 30 35 
32 0d 0a 30 32 30 33 33 0d 0a 30 31 39 39 38 0d 
0a 30 32 30 31 36 0d 0a 30 32 30 34 34 0d 0a 30 
32 30 39 37 0d 0a 30 32 30 39 32 0d 0a 30 32 31 
31 36 0d 0a 30 32 34 39 33 0d 0a 30 32 35 32 37 
0d 0a 30 32 32 38 30 0d 0a 30 32 31 34 39 0d 0a 
30 32 31 30 30 0d 0a 30 32 30 37 36 0d 0a 30 32 
30 37 31 0d 0a 30 32 30 34 39 0d 0a 30 32 30 34 
37 0d 0a 30 32 30 33 33 0d 0a 30 32 30 37 38 0d 
0a 30 32 31 30 34 0d 0a 30 32 30 39 36 0d 0a 30 
32 32 37 31 0d 0a 30 32 33 30 32 0d 0a 30 32 32 
30 31 0d 0a 30 32 31 31 35 0d 0a 30 32 30 36 35 
0d 0a 30 32 30 34 35 0d 0a 30 32 30 32 37 0d 0a 
30 32 30 30 31 0d 0a 30 32 30 32 35 0d 0a 30 32 
31 39 35 0d

--- RAW DATA AS STRING (first 1000 chars) ---
a
ACK

I2000
ACK

S
ACK
01974
01982
02003
02035
01996
01968
01965
01971
01984
02002
02011
02022
01982
01977
01981
02211
02265
02179
02135
02084
02085
02085
02180
02182
02164
02105
02093
02102
02097
02116
02317
02406
02258
02155
02101
02061
02052
02033
01998
02016
02044
02097
02092
02116
02493
02527
02280
02149
02100
02076
02071
02049
02047
02033
02078
02104
02096
02271
02302
02201
02115
02065
02045
02027
02001
02025
02195
02216
02125
02104
02110
02095
02056
02038
02041
02034
02026
01983
01997
02031
02036
02027
02026
02012
04104
04613
03399
02738
02391
02226
02141
02167
02377
02378
02205
02166
02119
02072
02068
02076
02181
02166
02139
02087
02073
02063
02059
02040
02045
02070
02066
02074
02106
02082
02072
02072
02047
02051
02055
02097
02094
02054
02064
02148
02141
02085
02118
02101
02080
02056
02046
02023
02032
02137
02160
02113
02086
02060
02

--- PARSED VALUES ---
Total parsed values: 2048
Min value: 1965.0
Max value: 65535.0
Mean value: 9889.785
First 20 values: [1974.0, 1982.0, 2003.0, 2035.0, 1996.0, 1968.0, 1965.0, 1971.0, 1984.0, 2002.0, 2011.0, 2022.0, 1982.0, 1977.0, 1981.0, 2211.0, 2265.0, 2179.0, 2135.0, 2084.0]
Last 20 values: [3120.0, 2853.0, 2644.0, 2356.0, 2195.0, 2523.0, 2589.0, 2312.0, 2200.0, 2149.0, 2333.0, 2413.0, 2305.0, 2210.0, 2159.0, 2164.0, 2118.0, 2124.0, 2135.0, 2088.0]

--- FULL SPECTRUM DATA (one value per line) ---
0	1974.0
1	1982.0
2	2003.0
3	2035.0
4	1996.0
5	1968.0
6	1965.0
7	1971.0
8	1984.0
9	2002.0
10	2011.0
11	2022.0
12	1982.0
13	1977.0
14	1981.0
15	2211.0
16	2265.0
17	2179.0
18	2135.0
19	2084.0
20	2085.0
21	2085.0
22	2180.0
23	2182.0
24	2164.0
25	2105.0
26	2093.0
27	2102.0
28	2097.0
29	2116.0
30	2317.0
31	2406.0
32	2258.0
33	2155.0
34	2101.0
35	2061.0
36	2052.0
37	2033.0
38	1998.0
39	2016.0
40	2044.0
41	2097.0
42	2092.0
43	2116.0
44	2493.0
45	2527.0
46	2280.0
47	2149.0
48	2100.0
49	2076.0
50	2071.0
51	2049.0
52	2047.0
53	2033.0
54	2078.0
55	2104.0
56	2096.0
57	2271.0
58	2302.0
59	2201.0
60	2115.0
61	2065.0
62	2045.0
63	2027.0
64	2001.0
65	2025.0
66	2195.0
67	2216.0
68	2125.0
69	2104.0
70	2110.0
71	2095.0
72	2056.0
73	2038.0
74	2041.0
75	2034.0
76	2026.0
77	1983.0
78	1997.0
79	2031.0
80	2036.0
81	2027.0
82	2026.0
83	2012.0
84	4104.0
85	4613.0
86	3399.0
87	2738.0
88	2391.0
89	2226.0
90	2141.0
91	2167.0
92	2377.0
93	2378.0
94	2205.0
95	2166.0
96	2119.0
97	2072.0
98	2068.0
99	2076.0
100	2181.0
101	2166.0
102	2139.0
103	2087.0
104	2073.0
105	2063.0
106	2059.0
107	2040.0
108	2045.0
109	2070.0
110	2066.0
111	2074.0
112	2106.0
113	2082.0
114	2072.0
115	2072.0
116	2047.0
117	2051.0
118	2055.0
119	2097.0
120	2094.0
121	2054.0
122	2064.0
123	2148.0
124	2141.0
125	2085.0
126	2118.0
127	2101.0
128	2080.0
129	2056.0
130	2046.0
131	2023.0
132	2032.0
133	2137.0
134	2160.0
135	2113.0
136	2086.0
137	2060.0
138	2014.0
139	2020.0
140	2024.0
141	2728.0
142	2877.0
143	2452.0
144	2232.0
145	2134.0
146	2177.0
147	2190.0
148	2221.0
149	2212.0
150	2150.0
151	2064.0
152	2056.0
153	2056.0
154	2034.0
155	2042.0
156	2078.0
157	2068.0
158	2091.0
159	2060.0
160	2063.0
161	2051.0
162	2220.0
163	2229.0
164	2106.0
165	2050.0
166	2044.0
167	2098.0
168	2118.0
169	2106.0
170	2071.0
171	2076.0
172	2060.0
173	2038.0
174	2015.0
175	2043.0
176	2074.0
177	2053.0
178	2047.0
179	2047.0
180	2055.0
181	2031.0
182	2051.0
183	2036.0
184	2019.0
185	2006.0
186	2015.0
187	2000.0
188	1984.0
189	2164.0
190	2219.0
191	2168.0
192	2115.0
193	2065.0
194	2084.0
195	2143.0
196	2149.0
197	2139.0
198	2071.0
199	2045.0
200	2039.0
201	2071.0
202	2108.0
203	2072.0
204	2063.0
205	2050.0
206	2037.0
207	2027.0
208	2041.0
209	2026.0
210	2019.0
211	2050.0
212	2080.0
213	2276.0
214	2684.0
215	2614.0
216	2339.0
217	2208.0
218	2116.0
219	2117.0
220	2080.0
221	2052.0
222	2047.0
223	2055.0
224	2023.0
225	2021.0
226	2025.0
227	2028.0
228	2006.0
229	2005.0
230	2026.0
231	2076.0
232	2117.0
233	2476.0
234	2543.0
235	2284.0
236	2152.0
237	2116.0
238	2197.0
239	2180.0
240	2104.0
241	2763.0
242	2942.0
243	2726.0
244	2554.0
245	2312.0
246	2241.0
247	2525.0
248	2516.0
249	2320.0
250	2200.0
251	2159.0
252	2123.0
253	2108.0
254	2086.0
255	2084.0
256	2094.0
257	2061.0
258	2041.0
259	2032.0
260	2054.0
261	2050.0
262	2040.0
263	2068.0
264	2085.0
265	2496.0
266	2595.0
267	2340.0
268	2209.0
269	2184.0
270	2179.0
271	2120.0
272	2068.0
273	2047.0
274	2044.0
275	2025.0
276	2006.0
277	2034.0
278	2035.0
279	2024.0
280	2012.0
281	1994.0
282	2043.0
283	2060.0
284	2086.0
285	2093.0
286	2096.0
287	2098.0
288	2071.0
289	2011.0
290	1999.0
291	1995.0
292	2027.0
293	2027.0
294	2022.0
295	2041.0
296	2048.0
297	2023.0
298	1999.0
299	2061.0
300	2084.0
301	2125.0
302	2110.0
303	2103.0
304	2087.0
305	2100.0
306	2096.0
307	2058.0
308	2046.0
309	3228.0
310	3627.0
311	2958.0
312	2498.0
313	2230.0
314	2259.0
315	2232.0
316	2147.0
317	2077.0
318	2056.0
319	2078.0
320	2114.0
321	2099.0
322	2048.0
323	2037.0
324	2019.0
325	2046.0
326	2031.0
327	2012.0
328	2016.0
329	2318.0
330	2384.0
331	2416.0
332	2341.0
333	2201.0
334	2156.0
335	2361.0
336	2379.0
337	2206.0
338	2127.0
339	2089.0
340	2105.0
341	2083.0
342	2077.0
343	2106.0
344	2111.0
345	2064.0
346	2072.0
347	2065.0
348	2068.0
349	2096.0
350	2104.0
351	2097.0
352	2041.0
353	2031.0
354	1996.0
355	2028.0
356	2103.0
357	2120.0
358	2088.0
359	2102.0
360	2074.0
361	2103.0
362	2109.0
363	2051.0
364	2052.0
365	2079.0
366	2085.0
367	2054.0
368	2047.0
369	2030.0
370	2061.0
371	2090.0
372	2079.0
373	2044.0
374	2019.0
375	2033.0
376	2093.0
377	2181.0
378	2162.0
379	2128.0
380	2133.0
381	2122.0
382	2077.0
383	2072.0
384	2068.0
385	2083.0
386	2105.0
387	2111.0
388	2090.0
389	2056.0
390	2035.0
391	2242.0
392	2295.0
393	2182.0
394	2128.0
395	2095.0
396	2150.0
397	2118.0
398	2060.0
399	2025.0
400	2012.0
401	2014.0
402	1993.0
403	2014.0
404	2208.0
405	2272.0
406	2144.0
407	2126.0
408	2110.0
409	2098.0
410	2066.0
411	2035.0
412	2060.0
413	2069.0
414	2047.0
415	2010.0
416	1999.0
417	1979.0
418	2015.0
419	2144.0
420	2186.0
421	2193.0
422	2372.0
423	2332.0
424	2189.0
425	2117.0
426	2031.0
427	1966.0
428	2027.0
429	2066.0
430	2063.0
431	2054.0
432	2080.0
433	2093.0
434	2054.0
435	2012.0
436	2110.0
437	2152.0
438	2068.0
439	2080.0
440	2447.0
441	2514.0
442	2273.0
443	2136.0
444	2078.0
445	2322.0
446	2399.0
447	2195.0
448	2152.0
449	2118.0
450	2080.0
451	2044.0
452	2023.0
453	2019.0
454	2011.0
455	2082.0
456	2110.0
457	2070.0
458	2034.0
459	2090.0
460	2102.0
461	2192.0
462	2235.0
463	2184.0
464	2122.0
465	2074.0
466	2050.0
467	2052.0
468	2050.0
469	2051.0
470	2046.0
471	2009.0
472	2041.0
473	2067.0
474	2253.0
475	2293.0
476	2187.0
477	2140.0
478	2221.0
479	2319.0
480	2283.0
481	2162.0
482	2100.0
483	2067.0
484	2054.0
485	2066.0
486	2094.0
487	2081.0
488	2026.0
489	2048.0
490	2039.0
491	2040.0
492	2096.0
493	2158.0
494	2130.0
495	2107.0
496	2136.0
497	2110.0
498	2120.0
499	2114.0
500	2074.0
501	2032.0
502	2064.0
503	2066.0
504	2075.0
505	2068.0
506	2054.0
507	2040.0
508	2035.0
509	2028.0
510	2032.0
511	2054.0
512	2079.0
513	2085.0
514	2037.0
515	2046.0
516	2056.0
517	2175.0
518	2419.0
519	2433.0
520	2307.0
521	2203.0
522	2111.0
523	2067.0
524	2072.0
525	2066.0
526	2064.0
527	2039.0
528	2045.0
529	2065.0
530	2068.0
531	2015.0
532	1999.0
533	2013.0
534	2013.0
535	2030.0
536	2044.0
537	2040.0
538	2028.0
539	1993.0
540	1993.0
541	2056.0
542	2059.0
543	2085.0
544	2087.0
545	2092.0
546	2043.0
547	2022.0
548	2058.0
549	2043.0
550	2097.0
551	2108.0
552	2074.0
553	2042.0
554	2028.0
555	2032.0
556	2033.0
557	2054.0
558	2077.0
559	2034.0
560	2055.0
561	2099.0
562	2095.0
563	2079.0
564	2088.0
565	2103.0
566	2086.0
567	2103.0
568	2061.0
569	2098.0
570	2088.0
571	2057.0
572	2042.0
573	2097.0
574	2101.0
575	2067.0
576	2083.0
577	2078.0
578	2080.0
579	2052.0
580	2045.0
581	2041.0
582	2032.0
583	1991.0
584	2019.0
585	2055.0
586	2113.0
587	2112.0
588	2067.0
589	2056.0
590	2038.0
591	2130.0
592	2177.0
593	2122.0
594	2076.0
595	2077.0
596	2295.0
597	2474.0
598	2374.0
599	2214.0
600	2099.0
601	2034.0
602	2052.0
603	2037.0
604	2039.0
605	2133.0
606	2163.0
607	2097.0
608	2059.0
609	2342.0
610	2446.0
611	2259.0
612	2150.0
613	2095.0
614	2068.0
615	2044.0
616	2001.0
617	2015.0
618	2016.0
619	2020.0
620	2036.0
621	2042.0
622	2003.0
623	2015.0
624	2123.0
625	2169.0
626	2091.0
627	2036.0
628	2039.0
629	2045.0
630	2048.0
631	2004.0
632	2011.0
633	2017.0
634	2011.0
635	2031.0
636	2037.0
637	2018.0
638	3060.0
639	3273.0
640	2662.0
641	2351.0
642	2191.0
643	2358.0
644	2391.0
645	2245.0
646	2100.0
647	2056.0
648	2063.0
649	2088.0
650	2063.0
651	2051.0
652	2048.0
653	2051.0
654	2040.0
655	2050.0
656	2069.0
657	2054.0
658	2080.0
659	2097.0
660	2104.0
661	2066.0
662	2192.0
663	2267.0
664	2207.0
665	2136.0
666	2138.0
667	2135.0
668	2090.0
669	2057.0
670	2008.0
671	2025.0
672	2061.0
673	2082.0
674	2060.0
675	2100.0
676	2087.0
677	2050.0
678	2050.0
679	2043.0
680	2137.0
681	2197.0
682	2175.0
683	2112.0
684	2101.0
685	2075.0
686	2086.0
687	2086.0
688	2400.0
689	2455.0
690	2277.0
691	2147.0
692	2116.0
693	2221.0
694	2248.0
695	2167.0
696	2088.0
697	2079.0
698	2074.0
699	2141.0
700	2119.0
701	2101.0
702	2070.0
703	2088.0
704	2145.0
705	2173.0
706	2136.0
707	2114.0
708	2132.0
709	2105.0
710	2280.0
711	2283.0
712	2187.0
713	2123.0
714	2094.0
715	2091.0
716	2095.0
717	2282.0
718	2352.0
719	2295.0
720	2255.0
721	2205.0
722	2122.0
723	2122.0
724	2097.0
725	2297.0
726	2337.0
727	2216.0
728	2141.0
729	2105.0
730	2085.0
731	2096.0
732	2068.0
733	2122.0
734	2354.0
735	2371.0
736	2611.0
737	2644.0
738	2485.0
739	2323.0
740	2228.0
741	2165.0
742	2160.0
743	2132.0
744	2099.0
745	2103.0
746	2114.0
747	2378.0
748	2430.0
749	2295.0
750	2182.0
751	2109.0
752	2198.0
753	2240.0
754	2147.0
755	2124.0
756	2135.0
757	2397.0
758	2443.0
759	2290.0
760	2182.0
761	2128.0
762	2172.0
763	2168.0
764	2154.0
765	2139.0
766	2139.0
767	2118.0
768	2108.0
769	2093.0
770	2120.0
771	2117.0
772	2118.0
773	2194.0
774	2213.0
775	2205.0
776	2156.0
777	2149.0
778	2142.0
779	2157.0
780	2191.0
781	2251.0
782	2225.0
783	2212.0
784	2165.0
785	2152.0
786	2152.0
787	2174.0
788	2208.0
789	2181.0
790	2218.0
791	2224.0
792	2181.0
793	2161.0
794	2190.0
795	2167.0
796	2158.0
797	2158.0
798	2170.0
799	2286.0
800	2318.0
801	2256.0
802	2207.0
803	2221.0
804	2249.0
805	2233.0
806	2237.0
807	2255.0
808	2214.0
809	2188.0
810	2189.0
811	2212.0
812	2396.0
813	2451.0
814	2335.0
815	2252.0
816	2251.0
817	2266.0
818	2274.0
819	2288.0
820	2335.0
821	2356.0
822	2355.0
823	2304.0
824	2274.0
825	2250.0
826	2218.0
827	2320.0
828	2330.0
829	2251.0
830	2217.0
831	2239.0
832	2246.0
833	2302.0
834	2292.0
835	2280.0
836	2268.0
837	2285.0
838	2289.0
839	2280.0
840	2278.0
841	2293.0
842	2294.0
843	2279.0
844	2307.0
845	2280.0
846	2302.0
847	2311.0
848	2308.0
849	2296.0
850	2319.0
851	2336.0
852	2540.0
853	2561.0
854	2433.0
855	3163.0
856	3297.0
857	2869.0
858	2602.0
859	2509.0
860	2475.0
861	2424.0
862	2479.0
863	2465.0
864	2423.0
865	2412.0
866	2369.0
867	2334.0
868	2353.0
869	2351.0
870	2359.0
871	2436.0
872	2469.0
873	2406.0
874	2400.0
875	2420.0
876	2409.0
877	2364.0
878	2350.0
879	2372.0
880	2380.0
881	2386.0
882	2385.0
883	2371.0
884	2375.0
885	2396.0
886	2414.0
887	2435.0
888	2387.0
889	2359.0
890	2369.0
891	2365.0
892	2367.0
893	2362.0
894	2371.0
895	2338.0
896	2340.0
897	2349.0
898	2377.0
899	2412.0
900	2455.0
901	2467.0
902	2476.0
903	2582.0
904	2620.0
905	2542.0
906	2555.0
907	2573.0
908	2760.0
909	2775.0
910	2618.0
911	2558.0
912	2534.0
913	2500.0
914	2476.0
915	2484.0
916	2484.0
917	3256.0
918	3462.0
919	3033.0
920	2805.0
921	2644.0
922	2568.0
923	2527.0
924	2540.0
925	2505.0
926	2489.0
927	2486.0
928	2519.0
929	2534.0
930	2576.0
931	2593.0
932	2583.0
933	2568.0
934	2577.0
935	2642.0
936	2647.0
937	2636.0
938	2754.0
939	2807.0
940	2702.0
941	2669.0
942	2656.0
943	2641.0
944	2636.0
945	2600.0
946	2567.0
947	2570.0
948	2612.0
949	2589.0
950	2585.0
951	2579.0
952	2600.0
953	2626.0
954	2630.0
955	2642.0
956	2707.0
957	2722.0
958	2702.0
959	2671.0
960	2641.0
961	2650.0
962	2798.0
963	2862.0
964	2765.0
965	2734.0
966	2713.0
967	2748.0
968	2750.0
969	2750.0
970	2740.0
971	2786.0
972	2809.0
973	2938.0
974	3006.0
975	2910.0
976	2852.0
977	2824.0
978	2834.0
979	2868.0
980	2904.0
981	2939.0
982	3003.0
983	3812.0
984	4082.0
985	3790.0
986	3700.0
987	3836.0
988	4017.0
989	4230.0
990	4462.0
991	4808.0
992	5174.0
993	5543.0
994	5908.0
995	6590.0
996	7135.0
997	7589.0
998	8146.0
999	8806.0
1000	9519.0
1001	10266.0
1002	11155.0
1003	12215.0
1004	13417.0
1005	14633.0
1006	15974.0
1007	17417.0
1008	18868.0
1009	20135.0
1010	21332.0
1011	22615.0
1012	23922.0
1013	25167.0
1014	26492.0
1015	27724.0
1016	28717.0
1017	29582.0
1018	30297.0
1019	30989.0
1020	31686.0
1021	32356.0
1022	33033.0
1023	33830.0
1024	34632.0
1025	35375.0
1026	36080.0
1027	36799.0
1028	37550.0
1029	38181.0
1030	38758.0
1031	39193.0
1032	39797.0
1033	40348.0
1034	40830.0
1035	41305.0
1036	41898.0
1037	42384.0
1038	42828.0
1039	43420.0
1040	44053.0
1041	44797.0
1042	45165.0
1043	45294.0
1044	45530.0
1045	45812.0
1046	46053.0
1047	47009.0
1048	47444.0
1049	47516.0
1050	47749.0
1051	48031.0
1052	48366.0
1053	48544.0
1054	48918.0
1055	49450.0
1056	49882.0
1057	50430.0
1058	51062.0
1059	51589.0
1060	52112.0
1061	52583.0
1062	53272.0
1063	53865.0
1064	54176.0
1065	54684.0
1066	55375.0
1067	55990.0
1068	56538.0
1069	57425.0
1070	58567.0
1071	59078.0
1072	59322.0
1073	59601.0
1074	59771.0
1075	59986.0
1076	60239.0
1077	60586.0
1078	60918.0
1079	61442.0
1080	62187.0
1081	62748.0
1082	63254.0
1083	63767.0
1084	64138.0
1085	64402.0
1086	64594.0
1087	64709.0
1088	64950.0
1089	65101.0
1090	65115.0
1091	65187.0
1092	65204.0
1093	65232.0
1094	65345.0
1095	65360.0
1096	65535.0
1097	65535.0
1098	65535.0
1099	65535.0
1100	65535.0
1101	65535.0
1102	65535.0
1103	65535.0
1104	65535.0
1105	65535.0
1106	65535.0
1107	65535.0
1108	65535.0
1109	65535.0
1110	65535.0
1111	65535.0
1112	65535.0
1113	65535.0
1114	65535.0
1115	65535.0
1116	65535.0
1117	65535.0
1118	65535.0
1119	65535.0
1120	65535.0
1121	65535.0
1122	65535.0
1123	65535.0
1124	65535.0
1125	65535.0
1126	65535.0
1127	65535.0
1128	65535.0
1129	65535.0
1130	65535.0
1131	65535.0
1132	65535.0
1133	65535.0
1134	65535.0
1135	65535.0
1136	65535.0
1137	65535.0
1138	65535.0
1139	65535.0
1140	65535.0
1141	65535.0
1142	65535.0
1143	65535.0
1144	65535.0
1145	65535.0
1146	65535.0
1147	65535.0
1148	65535.0
1149	65535.0
1150	65535.0
1151	65535.0
1152	65535.0
1153	65535.0
1154	65535.0
1155	65535.0
1156	65535.0
1157	65535.0
1158	65535.0
1159	65535.0
1160	65535.0
1161	65535.0
1162	65535.0
1163	65535.0
1164	65535.0
1165	65535.0
1166	65535.0
1167	65535.0
1168	65535.0
1169	65535.0
1170	65535.0
1171	65535.0
1172	65535.0
1173	65535.0
1174	65535.0
1175	65535.0
1176	65535.0
1177	65535.0
1178	65535.0
1179	65535.0
1180	65535.0
1181	65535.0
1182	65535.0
1183	65535.0
1184	65535.0
1185	65535.0
1186	65535.0
1187	65535.0
1188	65535.0
1189	65535.0
1190	65535.0
1191	65535.0
1192	65535.0
1193	65535.0
1194	65535.0
1195	65535.0
1196	65535.0
1197	65535.0
1198	65535.0
1199	65535.0
1200	65535.0
1201	65535.0
1202	65535.0
1203	65535.0
1204	65535.0
1205	65535.0
1206	65535.0
1207	65535.0
1208	65535.0
1209	65535.0
1210	65535.0
1211	65535.0
1212	65535.0
1213	65535.0
1214	65535.0
1215	65535.0
1216	65535.0
1217	65535.0
1218	65535.0
1219	65535.0
1220	65535.0
1221	65535.0
1222	65535.0
1223	65535.0
1224	65535.0
1225	65535.0
1226	65535.0
1227	65535.0
1228	65535.0
1229	65535.0
1230	65535.0
1231	65535.0
1232	65535.0
1233	65535.0
1234	65535.0
1235	65535.0
1236	65535.0
1237	65535.0
1238	65535.0
1239	65535.0
1240	65535.0
1241	65535.0
1242	65535.0
1243	65535.0
1244	65535.0
1245	65535.0
1246	65535.0
1247	65535.0
1248	65535.0
1249	65535.0
1250	65535.0
1251	65535.0
1252	65535.0
1253	65535.0
1254	65535.0
1255	65535.0
1256	65535.0
1257	65535.0
1258	65535.0
1259	65535.0
1260	65535.0
1261	65535.0
1262	65535.0
1263	65535.0
1264	65535.0
1265	65535.0
1266	65535.0
1267	65535.0
1268	63132.0
1269	60770.0
1270	58527.0
1271	56116.0
1272	53553.0
1273	50921.0
1274	48183.0
1275	45391.0
1276	42715.0
1277	39828.0
1278	36675.0
1279	33576.0
1280	30552.0
1281	27638.0
1282	24871.0
1283	22171.0
1284	19594.0
1285	17128.0
1286	14928.0
1287	12934.0
1288	11070.0
1289	9359.0
1290	7917.0
1291	6651.0
1292	5533.0
1293	4594.0
1294	4025.0
1295	3477.0
1296	2942.0
1297	2627.0
1298	2406.0
1299	2292.0
1300	2223.0
1301	2218.0
1302	2173.0
1303	2191.0
1304	2174.0
1305	2145.0
1306	2152.0
1307	2170.0
1308	2186.0
1309	2184.0
1310	2187.0
1311	2162.0
1312	2141.0
1313	2099.0
1314	2131.0
1315	2241.0
1316	2257.0
1317	2167.0
1318	2156.0
1319	2136.0
1320	2093.0
1321	2138.0
1322	2157.0
1323	2160.0
1324	2166.0
1325	2156.0
1326	2127.0
1327	2125.0
1328	2145.0
1329	2160.0
1330	2109.0
1331	2105.0
1332	2103.0
1333	2074.0
1334	2085.0
1335	2120.0
1336	2131.0
1337	2110.0
1338	2117.0
1339	2502.0
1340	2645.0
1341	2478.0
1342	2443.0
1343	2376.0
1344	2336.0
1345	2264.0
1346	2314.0
1347	2296.0
1348	2169.0
1349	2142.0
1350	2109.0
1351	2093.0
1352	2125.0
1353	2182.0
1354	2181.0
1355	2181.0
1356	2135.0
1357	2343.0
1358	2410.0
1359	2253.0
1360	2465.0
1361	2493.0
1362	2302.0
1363	2153.0
1364	2264.0
1365	2293.0
1366	2234.0
1367	2324.0
1368	2320.0
1369	2231.0
1370	2198.0
1371	2136.0
1372	2094.0
1373	2086.0
1374	2093.0
1375	2157.0
1376	2167.0
1377	2144.0
1378	2098.0
1379	2112.0
1380	2139.0
1381	2163.0
1382	2169.0
1383	2165.0
1384	2117.0
1385	2059.0
1386	2080.0
1387	2082.0
1388	2092.0
1389	2106.0
1390	2144.0
1391	2148.0
1392	2100.0
1393	2002.0
1394	2011.0
1395	2039.0
1396	2079.0
1397	2095.0
1398	2057.0
1399	2058.0
1400	3190.0
1401	3466.0
1402	2793.0
1403	2444.0
1404	2522.0
1405	2505.0
1406	2286.0
1407	3574.0
1408	3844.0
1409	3017.0
1410	2574.0
1411	2336.0
1412	2217.0
1413	2193.0
1414	2174.0
1415	2108.0
1416	2069.0
1417	2048.0
1418	2047.0
1419	2074.0
1420	2094.0
1421	2112.0
1422	2100.0
1423	2069.0
1424	2033.0
1425	2029.0
1426	2025.0
1427	2064.0
1428	2091.0
1429	2165.0
1430	2165.0
1431	2105.0
1432	2037.0
1433	2036.0
1434	2196.0
1435	2244.0
1436	2280.0
1437	2244.0
1438	2128.0
1439	2387.0
1440	2463.0
1441	2270.0
1442	2156.0
1443	2121.0
1444	2115.0
1445	2122.0
1446	2114.0
1447	2091.0
1448	2098.0
1449	2087.0
1450	2062.0
1451	2070.0
1452	2076.0
1453	2067.0
1454	2074.0
1455	2098.0
1456	2086.0
1457	2079.0
1458	2055.0
1459	2354.0
1460	2443.0
1461	2273.0
1462	2229.0
1463	2203.0
1464	2193.0
1465	2157.0
1466	2122.0
1467	2096.0
1468	2102.0
1469	2123.0
1470	2127.0
1471	2104.0
1472	2099.0
1473	2101.0
1474	2093.0
1475	2047.0
1476	2031.0
1477	2039.0
1478	2019.0
1479	2035.0
1480	2017.0
1481	2087.0
1482	2108.0
1483	2067.0
1484	2050.0
1485	2091.0
1486	2084.0
1487	2086.0
1488	2061.0
1489	2086.0
1490	2124.0
1491	2116.0
1492	2162.0
1493	2156.0
1494	2180.0
1495	2143.0
1496	2091.0
1497	2057.0
1498	2037.0
1499	2023.0
1500	2030.0
1501	2026.0
1502	2243.0
1503	2311.0
1504	2194.0
1505	2160.0
1506	2348.0
1507	2413.0
1508	2618.0
1509	2574.0
1510	2299.0
1511	2189.0
1512	2340.0
1513	2370.0
1514	2218.0
1515	2111.0
1516	2034.0
1517	2036.0
1518	2066.0
1519	2036.0
1520	2055.0
1521	2083.0
1522	2110.0
1523	2072.0
1524	2066.0
1525	2011.0
1526	2004.0
1527	2027.0
1528	2037.0
1529	2023.0
1530	2027.0
1531	2056.0
1532	2230.0
1533	2267.0
1534	2157.0
1535	2111.0
1536	2040.0
1537	2054.0
1538	2067.0
1539	2086.0
1540	2073.0
1541	2089.0
1542	2084.0
1543	2068.0
1544	2104.0
1545	2109.0
1546	2107.0
1547	2082.0
1548	2084.0
1549	2075.0
1550	2064.0
1551	2070.0
1552	2111.0
1553	2125.0
1554	2091.0
1555	2062.0
1556	2059.0
1557	2036.0
1558	2044.0
1559	2093.0
1560	2085.0
1561	2072.0
1562	2025.0
1563	2033.0
1564	2030.0
1565	2047.0
1566	2027.0
1567	2011.0
1568	2007.0
1569	2028.0
1570	2081.0
1571	2123.0
1572	2141.0
1573	2080.0
1574	2042.0
1575	2027.0
1576	2041.0
1577	2300.0
1578	2398.0
1579	2241.0
1580	2128.0
1581	2075.0
1582	2053.0
1583	2041.0
1584	2066.0
1585	2124.0
1586	2141.0
1587	2154.0
1588	2096.0
1589	2045.0
1590	2074.0
1591	2098.0
1592	2367.0
1593	2409.0
1594	2384.0
1595	2344.0
1596	2243.0
1597	2164.0
1598	2116.0
1599	2056.0
1600	2042.0
1601	2027.0
1602	2036.0
1603	2050.0
1604	2060.0
1605	2050.0
1606	2078.0
1607	2066.0
1608	2047.0
1609	2096.0
1610	2097.0
1611	2109.0
1612	2092.0
1613	2060.0
1614	2026.0
1615	2009.0
1616	2204.0
1617	2291.0
1618	2200.0
1619	2182.0
1620	2128.0
1621	2067.0
1622	2031.0
1623	1989.0
1624	2029.0
1625	2012.0
1626	1991.0
1627	1989.0
1628	2014.0
1629	2010.0
1630	2013.0
1631	2046.0
1632	2092.0
1633	2071.0
1634	2064.0
1635	2062.0
1636	2015.0
1637	1999.0
1638	2064.0
1639	2116.0
1640	2073.0
1641	2034.0
1642	2033.0
1643	2083.0
1644	2067.0
1645	2049.0
1646	2094.0
1647	2103.0
1648	2103.0
1649	2072.0
1650	2063.0
1651	2055.0
1652	2050.0
1653	2038.0
1654	2062.0
1655	2062.0
1656	2080.0
1657	2075.0
1658	2073.0
1659	2056.0
1660	2035.0
1661	2013.0
1662	1977.0
1663	1982.0
1664	2080.0
1665	2083.0
1666	2053.0
1667	2095.0
1668	2085.0
1669	2048.0
1670	2029.0
1671	2029.0
1672	2049.0
1673	2063.0
1674	2042.0
1675	2045.0
1676	2044.0
1677	2015.0
1678	2007.0
1679	1988.0
1680	1986.0
1681	2007.0
1682	2010.0
1683	1994.0
1684	2020.0
1685	2027.0
1686	2026.0
1687	2069.0
1688	2073.0
1689	2035.0
1690	2022.0
1691	2031.0
1692	2307.0
1693	2379.0
1694	2236.0
1695	2210.0
1696	2138.0
1697	2065.0
1698	2041.0
1699	2046.0
1700	2045.0
1701	2007.0
1702	2036.0
1703	2013.0
1704	2018.0
1705	2239.0
1706	2281.0
1707	2157.0
1708	2080.0
1709	2020.0
1710	2025.0
1711	2033.0
1712	2066.0
1713	2069.0
1714	2053.0
1715	2108.0
1716	2116.0
1717	2366.0
1718	2385.0
1719	2207.0
1720	2129.0
1721	2112.0
1722	2096.0
1723	2330.0
1724	2382.0
1725	2267.0
1726	2208.0
1727	2129.0
1728	2085.0
1729	2080.0
1730	2063.0
1731	2340.0
1732	2377.0
1733	2319.0
1734	2292.0
1735	2164.0
1736	2130.0
1737	2104.0
1738	2051.0
1739	2015.0
1740	2022.0
1741	2070.0
1742	2069.0
1743	2029.0
1744	1998.0
1745	2018.0
1746	2041.0
1747	2067.0
1748	2041.0
1749	2013.0
1750	2009.0
1751	2056.0
1752	2297.0
1753	2343.0
1754	2257.0
1755	2341.0
1756	2309.0
1757	2171.0
1758	2077.0
1759	2093.0
1760	2158.0
1761	2110.0
1762	2064.0
1763	2027.0
1764	2025.0
1765	2019.0
1766	2069.0
1767	2222.0
1768	2202.0
1769	2083.0
1770	1999.0
1771	1981.0
1772	1978.0
1773	1998.0
1774	1980.0
1775	1995.0
1776	2004.0
1777	2009.0
1778	2141.0
1779	2180.0
1780	2114.0
1781	2088.0
1782	2077.0
1783	2058.0
1784	2072.0
1785	2069.0
1786	2073.0
1787	2041.0
1788	2038.0
1789	2050.0
1790	2070.0
1791	2044.0
1792	2046.0
1793	2094.0
1794	2088.0
1795	2060.0
1796	2035.0
1797	2032.0
1798	1993.0
1799	2008.0
1800	2014.0
1801	2034.0
1802	2006.0
1803	1991.0
1804	2003.0
1805	2027.0
1806	2025.0
1807	2020.0
1808	2040.0
1809	2034.0
1810	2017.0
1811	2013.0
1812	2073.0
1813	2060.0
1814	2031.0
1815	2028.0
1816	2057.0
1817	2072.0
1818	2104.0
1819	2093.0
1820	2148.0
1821	2151.0
1822	2075.0
1823	2077.0
1824	2074.0
1825	2067.0
1826	2032.0
1827	2098.0
1828	2131.0
1829	2090.0
1830	2085.0
1831	2090.0
1832	2125.0
1833	2110.0
1834	2117.0
1835	2122.0
1836	2087.0
1837	2088.0
1838	2086.0
1839	2015.0
1840	1992.0
1841	1989.0
1842	2059.0
1843	2074.0
1844	2294.0
1845	2368.0
1846	2230.0
1847	2126.0
1848	2095.0
1849	2116.0
1850	2107.0
1851	2124.0
1852	2083.0
1853	2066.0
1854	2088.0
1855	2090.0
1856	2055.0
1857	2072.0
1858	2074.0
1859	2082.0
1860	2081.0
1861	2029.0
1862	2031.0
1863	2026.0
1864	2050.0
1865	2045.0
1866	2016.0
1867	1992.0
1868	1989.0
1869	2230.0
1870	2336.0
1871	2200.0
1872	2133.0
1873	2060.0
1874	2002.0
1875	2014.0
1876	1999.0
1877	1985.0
1878	1991.0
1879	1994.0
1880	2080.0
1881	2115.0
1882	2070.0
1883	2060.0
1884	2028.0
1885	2007.0
1886	1994.0
1887	2008.0
1888	2048.0
1889	2047.0
1890	2209.0
1891	2248.0
1892	2147.0
1893	2080.0
1894	2051.0
1895	2045.0
1896	2055.0
1897	2060.0
1898	2108.0
1899	2088.0
1900	3473.0
1901	3827.0
1902	2979.0
1903	2671.0
1904	2473.0
1905	2248.0
1906	2256.0
1907	2407.0
1908	2306.0
1909	2328.0
1910	2289.0
1911	2149.0
1912	2316.0
1913	2354.0
1914	2235.0
1915	2164.0
1916	2126.0
1917	2091.0
1918	2034.0
1919	1986.0
1920	1999.0
1921	1993.0
1922	2000.0
1923	1998.0
1924	1999.0
1925	1995.0
1926	1971.0
1927	2074.0
1928	2100.0
1929	2085.0
1930	2050.0
1931	2049.0
1932	2029.0
1933	2064.0
1934	2073.0
1935	2090.0
1936	2310.0
1937	2352.0
1938	2185.0
1939	2109.0
1940	2063.0
1941	2015.0
1942	2039.0
1943	2027.0
1944	2025.0
1945	2033.0
1946	2105.0
1947	2119.0
1948	2117.0
1949	2088.0
1950	2071.0
1951	2054.0
1952	2027.0
1953	2119.0
1954	2144.0
1955	2243.0
1956	2248.0
1957	2150.0
1958	2122.0
1959	2126.0
1960	2076.0
1961	2079.0
1962	2045.0
1963	2032.0
1964	2038.0
1965	2038.0
1966	2020.0
1967	2018.0
1968	2035.0
1969	2055.0
1970	2083.0
1971	2056.0
1972	2071.0
1973	2042.0
1974	2047.0
1975	2033.0
1976	2114.0
1977	2116.0
1978	2052.0
1979	2034.0
1980	2063.0
1981	2068.0
1982	2044.0
1983	2045.0
1984	2058.0
1985	2066.0
1986	2047.0
1987	2040.0
1988	2017.0
1989	2006.0
1990	2040.0
1991	2074.0
1992	2050.0
1993	2121.0
1994	2167.0
1995	2106.0
1996	2082.0
1997	2042.0
1998	2033.0
1999	1992.0
2000	1990.0
2001	2023.0
2002	2225.0
2003	2266.0
2004	2153.0
2005	2076.0
2006	2055.0
2007	2039.0
2008	1995.0
2009	1994.0
2010	1993.0
2011	2019.0
2012	2018.0
2013	2020.0
2014	2012.0
2015	2096.0
2016	2132.0
2017	2129.0
2018	2085.0
2019	2041.0
2020	2037.0
2021	2016.0
2022	2080.0
2023	2090.0
2024	2100.0
2025	2083.0
2026	2907.0
2027	3547.0
2028	3120.0
2029	2853.0
2030	2644.0
2031	2356.0
2032	2195.0
2033	2523.0
2034	2589.0
2035	2312.0
2036	2200.0
2037	2149.0
2038	2333.0
2039	2413.0
2040	2305.0
2041	2210.0
2042	2159.0
2043	2164.0
2044	2118.0
2045	2124.0
2046	2135.0
2047	2088.0
