================================================================================
RAMAN SPECTROMETER DEBUG LOG
Timestamp: 2026-01-19T16:02:23.744187
================================================================================

--- CONFIGURATION ---
Port: /dev/ttyUSB0
Baudrate: 9600
Integration time: 2000 ms
Timeout: 10.0 s
Expected data points: 2048
Min data points: 2048

--- RAW DATA INFO ---
Total bytes received: 14371
Null bytes count: 1

--- RAW BYTES (first 500, hex) ---
61 0d 0a 41 43 4b 0d 0a 0d 0a 49 32 30 30 30 0d 
0a 41 43 4b 0d 0a 0d 0a 53 0d 0a 41 43 4b 0d 0a 
30 31 38 38 34 0d 0a 30 31 38 39 31 0d 0a 30 31 
38 37 31 0d 0a 30 31 38 36 34 0d 0a 30 31 38 38 
39 0d 0a 30 31 38 36 38 0d 0a 30 31 38 39 37 0d 
0a 30 31 38 38 30 0d 0a 30 31 39 30 33 0d 0a 30 
31 39 30 32 0d 0a 30 31 38 39 33 0d 0a 30 31 38 
38 37 0d 0a 30 31 38 39 39 0d 0a 30 31 38 39 32 
0d 0a 30 31 38 36 38 0d 0a 30 32 30 32 39 0d 0a 
30 32 30 35 32 0d 0a 30 31 39 37 39 0d 0a 30 31 
39 34 38 0d 0a 30 31 39 33 31 0d 0a 30 31 38 39 
37 0d 0a 30 31 39 32 39 0d 0a 30 31 39 38 36 0d 
0a 30 31 39 38 33 0d 0a 30 31 39 36 30 0d 0a 30 
31 39 36 31 0d 0a 30 31 39 36 38 0d 0a 30 31 39 
34 37 0d 0a 30 31 39 36 34 0d 0a 30 31 39 39 30 
0d 0a 30 32 31 30 35 0d 0a 30 32 31 31 31 0d 0a 
30 32 30 34 33 0d 0a 30 31 39 38 31 0d 0a 30 31 
39 39 36 0d 0a 30 31 39 37 39 0d 0a 30 31 39 34 
35 0d 0a 30 31 39 33 30 0d 0a 30 31 39 31 34 0d 
0a 30 31 39 33 31 0d 0a 30 31 39 34 32 0d 0a 30 
31 39 38 35 0d 0a 30 31 39 36 36 0d 0a 30 31 39 
38 34 0d 0a 30 32 31 34 32 0d 0a 30 32 31 35 36 
0d 0a 30 32 30 33 38 0d 0a 30 31 39 39 34 0d 0a 
30 31 39 35 39 0d 0a 30 31 38 39 33 0d 0a 30 31 
38 38 33 0d 0a 30 31 38 37 35 0d 0a 30 31 39 30 
30 0d 0a 30 31 39 31 30 0d 0a 30 31 39 31 39 0d 
0a 30 31 39 33 38 0d 0a 30 31 39 34 34 0d 0a 30 
32 30 33 36 0d 0a 30 32 30 34 30 0d 0a 30 31 39 
38 36 0d 0a 30 31 39 37 37 0d 0a 30 31 39 37 39 
0d 0a 30 31 39 38 34 0d 0a 30 31 39 37 39 0d 0a 
30 31 39 36 32 0d 0a 30 31 39 37 36 0d 0a 30 32 
30 35 32 0d

--- RAW DATA AS STRING (first 1000 chars) ---
a
ACK

I2000
ACK

S
ACK
01884
01891
01871
01864
01889
01868
01897
01880
01903
01902
01893
01887
01899
01892
01868
02029
02052
01979
01948
01931
01897
01929
01986
01983
01960
01961
01968
01947
01964
01990
02105
02111
02043
01981
01996
01979
01945
01930
01914
01931
01942
01985
01966
01984
02142
02156
02038
01994
01959
01893
01883
01875
01900
01910
01919
01938
01944
02036
02040
01986
01977
01979
01984
01979
01962
01976
02052
02037
01956
01966
01968
01967
01954
01918
01924
01884
01872
01879
01900
01904
01901
01889
01916
01927
02949
03211
02618
02291
02086
01995
01964
01993
02111
02083
01996
01988
01998
01964
01936
01966
02020
02002
02002
01967
01952
01963
01935
01942
01975
01971
01913
01907
01921
01918
01930
01959
01961
01928
01936
01951
01962
01920
01940
01967
01969
01959
01962
01946
01917
01932
01961
01976
01973
01986
01968
01937
01932
01943
01

--- PARSED VALUES ---
Total parsed values: 2048
Min value: 1851.0
Max value: 3211.0
Mean value: 2018.528
Saturated values (>=65535): 0
First 20 values: [1884.0, 1891.0, 1871.0, 1864.0, 1889.0, 1868.0, 1897.0, 1880.0, 1903.0, 1902.0, 1893.0, 1887.0, 1899.0, 1892.0, 1868.0, 2029.0, 2052.0, 1979.0, 1948.0, 1931.0]
Last 20 values: [2500.0, 2351.0, 2244.0, 2098.0, 2058.0, 2244.0, 2267.0, 2099.0, 2044.0, 2020.0, 2138.0, 2170.0, 2078.0, 2002.0, 1969.0, 1974.0, 1952.0, 1970.0, 1979.0, 1988.0]

--- FULL SPECTRUM DATA (one value per line) ---
0	1884.0
1	1891.0
2	1871.0
3	1864.0
4	1889.0
5	1868.0
6	1897.0
7	1880.0
8	1903.0
9	1902.0
10	1893.0
11	1887.0
12	1899.0
13	1892.0
14	1868.0
15	2029.0
16	2052.0
17	1979.0
18	1948.0
19	1931.0
20	1897.0
21	1929.0
22	1986.0
23	1983.0
24	1960.0
25	1961.0
26	1968.0
27	1947.0
28	1964.0
29	1990.0
30	2105.0
31	2111.0
32	2043.0
33	1981.0
34	1996.0
35	1979.0
36	1945.0
37	1930.0
38	1914.0
39	1931.0
40	1942.0
41	1985.0
42	1966.0
43	1984.0
44	2142.0
45	2156.0
46	2038.0
47	1994.0
48	1959.0
49	1893.0
50	1883.0
51	1875.0
52	1900.0
53	1910.0
54	1919.0
55	1938.0
56	1944.0
57	2036.0
58	2040.0
59	1986.0
60	1977.0
61	1979.0
62	1984.0
63	1979.0
64	1962.0
65	1976.0
66	2052.0
67	2037.0
68	1956.0
69	1966.0
70	1968.0
71	1967.0
72	1954.0
73	1918.0
74	1924.0
75	1884.0
76	1872.0
77	1879.0
78	1900.0
79	1904.0
80	1901.0
81	1889.0
82	1916.0
83	1927.0
84	2949.0
85	3211.0
86	2618.0
87	2291.0
88	2086.0
89	1995.0
90	1964.0
91	1993.0
92	2111.0
93	2083.0
94	1996.0
95	1988.0
96	1998.0
97	1964.0
98	1936.0
99	1966.0
100	2020.0
101	2002.0
102	2002.0
103	1967.0
104	1952.0
105	1963.0
106	1935.0
107	1942.0
108	1975.0
109	1971.0
110	1913.0
111	1907.0
112	1921.0
113	1918.0
114	1930.0
115	1959.0
116	1961.0
117	1928.0
118	1936.0
119	1951.0
120	1962.0
121	1920.0
122	1940.0
123	1967.0
124	1969.0
125	1959.0
126	1962.0
127	1946.0
128	1917.0
129	1932.0
130	1961.0
131	1976.0
132	1973.0
133	1986.0
134	1968.0
135	1937.0
136	1932.0
137	1943.0
138	1915.0
139	1906.0
140	1912.0
141	2305.0
142	2400.0
143	2183.0
144	2081.0
145	1995.0
146	2031.0
147	1995.0
148	2013.0
149	1990.0
150	1951.0
151	1968.0
152	2004.0
153	1992.0
154	1947.0
155	1959.0
156	1934.0
157	1908.0
158	1924.0
159	1939.0
160	1948.0
161	1959.0
162	2058.0
163	2046.0
164	2006.0
165	1979.0
166	1958.0
167	1948.0
168	1951.0
169	1921.0
170	1911.0
171	1915.0
172	1902.0
173	1906.0
174	1929.0
175	1958.0
176	1945.0
177	1946.0
178	1937.0
179	1951.0
180	1929.0
181	1934.0
182	1911.0
183	1913.0
184	1902.0
185	1895.0
186	1891.0
187	1889.0
188	1897.0
189	1989.0
190	2036.0
191	1999.0
192	1963.0
193	1935.0
194	1956.0
195	1999.0
196	2005.0
197	1985.0
198	1947.0
199	1963.0
200	1969.0
201	1943.0
202	1918.0
203	1932.0
204	1931.0
205	1918.0
206	1896.0
207	1876.0
208	1922.0
209	1954.0
210	1966.0
211	1944.0
212	1936.0
213	2021.0
214	2277.0
215	2246.0
216	2119.0
217	2035.0
218	1969.0
219	1978.0
220	1962.0
221	1933.0
222	1904.0
223	1905.0
224	1887.0
225	1892.0
226	1887.0
227	1905.0
228	1907.0
229	1895.0
230	1880.0
231	1901.0
232	1924.0
233	2096.0
234	2163.0
235	2029.0
236	1966.0
237	1921.0
238	1967.0
239	1971.0
240	1945.0
241	2285.0
242	2344.0
243	2246.0
244	2164.0
245	2047.0
246	2001.0
247	2211.0
248	2224.0
249	2096.0
250	2020.0
251	1981.0
252	1964.0
253	1989.0
254	1964.0
255	1951.0
256	1945.0
257	1918.0
258	1920.0
259	1898.0
260	1921.0
261	1911.0
262	1897.0
263	1935.0
264	1937.0
265	2145.0
266	2201.0
267	2095.0
268	2027.0
269	2014.0
270	1995.0
271	1968.0
272	1937.0
273	1930.0
274	1930.0
275	1933.0
276	1935.0
277	1921.0
278	1924.0
279	1902.0
280	1918.0
281	1902.0
282	1919.0
283	1926.0
284	1918.0
285	1908.0
286	1909.0
287	1942.0
288	1945.0
289	1907.0
290	1874.0
291	1900.0
292	1932.0
293	1945.0
294	1928.0
295	1929.0
296	1915.0
297	1935.0
298	1929.0
299	1953.0
300	1969.0
301	1961.0
302	1957.0
303	1943.0
304	1955.0
305	1944.0
306	1951.0
307	1948.0
308	1942.0
309	2511.0
310	2706.0
311	2392.0
312	2139.0
313	2055.0
314	2104.0
315	2108.0
316	2035.0
317	2000.0
318	1963.0
319	1958.0
320	1944.0
321	1923.0
322	1931.0
323	1921.0
324	1931.0
325	1943.0
326	1937.0
327	1915.0
328	1927.0
329	2068.0
330	2137.0
331	2136.0
332	2102.0
333	2030.0
334	1992.0
335	2089.0
336	2104.0
337	2040.0
338	1954.0
339	1938.0
340	1920.0
341	1948.0
342	1957.0
343	1930.0
344	1902.0
345	1909.0
346	1927.0
347	1924.0
348	1960.0
349	1951.0
350	1955.0
351	1943.0
352	1926.0
353	1909.0
354	1914.0
355	1921.0
356	1927.0
357	1961.0
358	1964.0
359	1952.0
360	1919.0
361	1922.0
362	1931.0
363	1967.0
364	1980.0
365	1986.0
366	1959.0
367	1933.0
368	1929.0
369	1909.0
370	1920.0
371	1930.0
372	1931.0
373	1919.0
374	1933.0
375	1913.0
376	1950.0
377	1991.0
378	1961.0
379	1926.0
380	1976.0
381	1999.0
382	1928.0
383	1909.0
384	1921.0
385	1959.0
386	1945.0
387	1950.0
388	1950.0
389	1936.0
390	1931.0
391	2017.0
392	2042.0
393	1992.0
394	1949.0
395	1929.0
396	1943.0
397	1941.0
398	1927.0
399	1928.0
400	1932.0
401	1941.0
402	1918.0
403	1910.0
404	2002.0
405	2036.0
406	1981.0
407	1988.0
408	1955.0
409	1968.0
410	1959.0
411	1940.0
412	1952.0
413	1962.0
414	1947.0
415	1935.0
416	1927.0
417	1919.0
418	1937.0
419	2010.0
420	2013.0
421	1981.0
422	2062.0
423	2048.0
424	1990.0
425	1959.0
426	1912.0
427	1881.0
428	1915.0
429	1957.0
430	1965.0
431	1936.0
432	1928.0
433	1940.0
434	1933.0
435	1927.0
436	1984.0
437	2007.0
438	1983.0
439	1950.0
440	2148.0
441	2159.0
442	2052.0
443	1967.0
444	1911.0
445	2023.0
446	2099.0
447	2039.0
448	2019.0
449	2003.0
450	1955.0
451	1903.0
452	1888.0
453	1930.0
454	1919.0
455	1953.0
456	1961.0
457	1968.0
458	1952.0
459	1983.0
460	1964.0
461	1966.0
462	1994.0
463	1966.0
464	1949.0
465	1920.0
466	1951.0
467	1943.0
468	1928.0
469	1906.0
470	1874.0
471	1897.0
472	1918.0
473	1927.0
474	2019.0
475	2052.0
476	2003.0
477	2005.0
478	2056.0
479	2119.0
480	2076.0
481	1989.0
482	1927.0
483	1902.0
484	1917.0
485	1950.0
486	1975.0
487	1929.0
488	1905.0
489	1914.0
490	1937.0
491	1910.0
492	1927.0
493	1967.0
494	1963.0
495	1941.0
496	1914.0
497	1934.0
498	1939.0
499	1947.0
500	1912.0
501	1908.0
502	1952.0
503	1965.0
504	1974.0
505	1936.0
506	1935.0
507	1913.0
508	1911.0
509	1879.0
510	1890.0
511	1892.0
512	1918.0
513	1912.0
514	1902.0
515	1912.0
516	1899.0
517	1979.0
518	2120.0
519	2134.0
520	2081.0
521	2029.0
522	1965.0
523	1931.0
524	1914.0
525	1943.0
526	1952.0
527	1934.0
528	1932.0
529	1950.0
530	1941.0
531	1914.0
532	1938.0
533	1939.0
534	1919.0
535	1894.0
536	1903.0
537	1912.0
538	1919.0
539	1950.0
540	1929.0
541	1963.0
542	1967.0
543	1994.0
544	1989.0
545	1965.0
546	1913.0
547	1907.0
548	1933.0
549	1927.0
550	1957.0
551	1964.0
552	1954.0
553	1945.0
554	1953.0
555	1936.0
556	1929.0
557	1951.0
558	1938.0
559	1903.0
560	1914.0
561	1926.0
562	1921.0
563	1894.0
564	1895.0
565	1909.0
566	1899.0
567	1937.0
568	1938.0
569	1956.0
570	1966.0
571	1941.0
572	1927.0
573	1964.0
574	1992.0
575	1937.0
576	1925.0
577	1919.0
578	1931.0
579	1886.0
580	1874.0
581	1875.0
582	1876.0
583	1871.0
584	1851.0
585	1878.0
586	1942.0
587	1987.0
588	1968.0
589	1964.0
590	1954.0
591	1974.0
592	1968.0
593	1946.0
594	1926.0
595	1899.0
596	2041.0
597	2144.0
598	2113.0
599	2023.0
600	1961.0
601	1933.0
602	1945.0
603	1918.0
604	1912.0
605	1941.0
606	1944.0
607	1938.0
608	1924.0
609	2088.0
610	2123.0
611	2047.0
612	1974.0
613	1953.0
614	1925.0
615	1924.0
616	1922.0
617	1902.0
618	1900.0
619	1888.0
620	1893.0
621	1885.0
622	1907.0
623	1886.0
624	1928.0
625	1938.0
626	1922.0
627	1897.0
628	1899.0
629	1934.0
630	1946.0
631	1949.0
632	1955.0
633	1945.0
634	1924.0
635	1932.0
636	1920.0
637	1935.0
638	2502.0
639	2613.0
640	2260.0
641	2090.0
642	2003.0
643	2066.0
644	2102.0
645	2019.0
646	1965.0
647	1923.0
648	1924.0
649	1947.0
650	1955.0
651	1928.0
652	1910.0
653	1906.0
654	1899.0
655	1935.0
656	1959.0
657	1956.0
658	1917.0
659	1959.0
660	1963.0
661	1907.0
662	1969.0
663	2020.0
664	2016.0
665	1997.0
666	1991.0
667	1983.0
668	1966.0
669	1949.0
670	1924.0
671	1894.0
672	1898.0
673	1898.0
674	1875.0
675	1897.0
676	1929.0
677	1934.0
678	1934.0
679	1930.0
680	1971.0
681	2013.0
682	1999.0
683	1989.0
684	1957.0
685	1950.0
686	1951.0
687	1966.0
688	2133.0
689	2128.0
690	2042.0
691	1987.0
692	1968.0
693	1999.0
694	2013.0
695	1973.0
696	1962.0
697	1934.0
698	1906.0
699	1957.0
700	1968.0
701	1967.0
702	1945.0
703	1956.0
704	1973.0
705	1981.0
706	1943.0
707	1935.0
708	1974.0
709	2002.0
710	2034.0
711	2043.0
712	1991.0
713	1953.0
714	1948.0
715	1898.0
716	1882.0
717	1995.0
718	2061.0
719	2059.0
720	2063.0
721	2009.0
722	1961.0
723	1975.0
724	1947.0
725	2043.0
726	2039.0
727	1983.0
728	1927.0
729	1896.0
730	1918.0
731	1928.0
732	1940.0
733	1952.0
734	2080.0
735	2107.0
736	2254.0
737	2270.0
738	2143.0
739	2051.0
740	2003.0
741	1930.0
742	1929.0
743	1927.0
744	1939.0
745	1967.0
746	1934.0
747	2069.0
748	2113.0
749	2031.0
750	1951.0
751	1921.0
752	1964.0
753	1985.0
754	1942.0
755	1901.0
756	1901.0
757	2017.0
758	2091.0
759	1979.0
760	1962.0
761	1964.0
762	1969.0
763	1957.0
764	1974.0
765	1959.0
766	1933.0
767	1944.0
768	1924.0
769	1930.0
770	1956.0
771	1951.0
772	1902.0
773	1915.0
774	1907.0
775	1906.0
776	1930.0
777	1950.0
778	1935.0
779	1928.0
780	1931.0
781	1953.0
782	1973.0
783	1944.0
784	1944.0
785	1938.0
786	1947.0
787	1941.0
788	1965.0
789	1991.0
790	1982.0
791	1952.0
792	1936.0
793	1959.0
794	1919.0
795	1905.0
796	1900.0
797	1896.0
798	1917.0
799	2007.0
800	2017.0
801	1973.0
802	1961.0
803	1941.0
804	1956.0
805	1956.0
806	1935.0
807	1921.0
808	1907.0
809	1879.0
810	1875.0
811	1871.0
812	1950.0
813	2011.0
814	1960.0
815	1946.0
816	1937.0
817	1959.0
818	1959.0
819	1995.0
820	1992.0
821	1976.0
822	1938.0
823	1910.0
824	1935.0
825	1952.0
826	1945.0
827	1964.0
828	1937.0
829	1880.0
830	1900.0
831	1907.0
832	1906.0
833	1939.0
834	1945.0
835	1913.0
836	1908.0
837	1911.0
838	1906.0
839	1892.0
840	1901.0
841	1926.0
842	1923.0
843	1930.0
844	1929.0
845	1929.0
846	1913.0
847	1900.0
848	1946.0
849	1955.0
850	1985.0
851	1975.0
852	2058.0
853	2065.0
854	2016.0
855	2534.0
856	2637.0
857	2331.0
858	2173.0
859	2077.0
860	2022.0
861	1980.0
862	1988.0
863	2004.0
864	1983.0
865	1989.0
866	1996.0
867	1997.0
868	1968.0
869	1916.0
870	1898.0
871	1961.0
872	1990.0
873	1956.0
874	1947.0
875	1942.0
876	1955.0
877	1912.0
878	1892.0
879	1895.0
880	1916.0
881	1924.0
882	1902.0
883	1925.0
884	1912.0
885	1895.0
886	1905.0
887	1919.0
888	1912.0
889	1924.0
890	1903.0
891	1911.0
892	1902.0
893	1895.0
894	1913.0
895	1900.0
896	1882.0
897	1870.0
898	1884.0
899	1918.0
900	1960.0
901	1910.0
902	1878.0
903	1988.0
904	2008.0
905	1953.0
906	1974.0
907	2005.0
908	2083.0
909	2080.0
910	1997.0
911	1994.0
912	1973.0
913	1947.0
914	1974.0
915	1965.0
916	1974.0
917	2352.0
918	2463.0
919	2241.0
920	2111.0
921	2027.0
922	1976.0
923	1950.0
924	1952.0
925	1931.0
926	1920.0
927	1906.0
928	1889.0
929	1893.0
930	1919.0
931	1964.0
932	1948.0
933	1935.0
934	1964.0
935	2003.0
936	1984.0
937	1966.0
938	2044.0
939	2041.0
940	1981.0
941	1924.0
942	1891.0
943	1888.0
944	1903.0
945	1894.0
946	1898.0
947	1917.0
948	1921.0
949	1918.0
950	1884.0
951	1898.0
952	1924.0
953	1932.0
954	1909.0
955	1947.0
956	1949.0
957	1949.0
958	1924.0
959	1918.0
960	1911.0
961	1907.0
962	2016.0
963	2069.0
964	2036.0
965	1968.0
966	1955.0
967	1971.0
968	1983.0
969	1975.0
970	1959.0
971	1941.0
972	1929.0
973	2028.0
974	2038.0
975	1983.0
976	1968.0
977	1963.0
978	1941.0
979	1957.0
980	1948.0
981	1944.0
982	1953.0
983	2348.0
984	2424.0
985	2151.0
986	2044.0
987	1983.0
988	1978.0
989	1925.0
990	1947.0
991	1978.0
992	1987.0
993	1973.0
994	1961.0
995	2067.0
996	2066.0
997	2050.0
998	2031.0
999	2003.0
1000	1987.0
1001	1986.0
1002	1976.0
1003	1987.0
1004	2007.0
1005	2006.0
1006	2033.0
1007	2056.0
1008	2029.0
1009	2001.0
1010	2033.0
1011	2021.0
1012	2028.0
1013	2037.0
1014	2031.0
1015	2017.0
1016	2031.0
1017	2069.0
1018	2068.0
1019	2076.0
1020	2076.0
1021	2088.0
1022	2073.0
1023	2074.0
1024	2082.0
1025	2078.0
1026	2068.0
1027	2075.0
1028	2110.0
1029	2162.0
1030	2152.0
1031	2104.0
1032	2132.0
1033	2167.0
1034	2195.0
1035	2147.0
1036	2131.0
1037	2145.0
1038	2143.0
1039	2141.0
1040	2146.0
1041	2352.0
1042	2410.0
1043	2329.0
1044	2268.0
1045	2244.0
1046	2220.0
1047	2452.0
1048	2497.0
1049	2373.0
1050	2290.0
1051	2270.0
1052	2289.0
1053	2224.0
1054	2184.0
1055	2192.0
1056	2228.0
1057	2235.0
1058	2230.0
1059	2230.0
1060	2217.0
1061	2224.0
1062	2331.0
1063	2372.0
1064	2320.0
1065	2319.0
1066	2286.0
1067	2265.0
1068	2248.0
1069	2326.0
1070	2456.0
1071	2482.0
1072	2390.0
1073	2346.0
1074	2326.0
1075	2280.0
1076	2279.0
1077	2282.0
1078	2271.0
1079	2259.0
1080	2254.0
1081	2233.0
1082	2250.0
1083	2233.0
1084	2261.0
1085	2266.0
1086	2231.0
1087	2226.0
1088	2322.0
1089	2359.0
1090	2295.0
1091	2297.0
1092	2292.0
1093	2269.0
1094	2343.0
1095	2377.0
1096	2345.0
1097	2338.0
1098	2318.0
1099	2286.0
1100	2258.0
1101	2719.0
1102	2827.0
1103	2566.0
1104	2455.0
1105	2385.0
1106	2376.0
1107	2352.0
1108	2336.0
1109	2358.0
1110	2414.0
1111	2387.0
1112	2318.0
1113	2300.0
1114	2264.0
1115	2273.0
1116	2269.0
1117	2293.0
1118	2279.0
1119	2275.0
1120	2314.0
1121	2331.0
1122	2508.0
1123	2527.0
1124	2437.0
1125	2388.0
1126	2346.0
1127	2351.0
1128	2417.0
1129	2375.0
1130	2343.0
1131	2319.0
1132	2307.0
1133	2303.0
1134	2273.0
1135	2264.0
1136	2293.0
1137	2350.0
1138	2362.0
1139	2399.0
1140	2402.0
1141	2578.0
1142	2598.0
1143	2462.0
1144	2384.0
1145	2327.0
1146	2349.0
1147	2373.0
1148	2406.0
1149	2375.0
1150	2401.0
1151	2413.0
1152	2373.0
1153	2354.0
1154	2336.0
1155	2339.0
1156	2381.0
1157	2412.0
1158	2397.0
1159	2375.0
1160	2358.0
1161	2349.0
1162	2320.0
1163	2338.0
1164	2334.0
1165	2364.0
1166	2388.0
1167	2419.0
1168	2406.0
1169	2374.0
1170	2343.0
1171	2338.0
1172	2376.0
1173	2369.0
1174	2464.0
1175	2486.0
1176	2425.0
1177	2397.0
1178	2391.0
1179	2381.0
1180	2348.0
1181	2465.0
1182	2501.0
1183	2488.0
1184	2440.0
1185	2443.0
1186	2408.0
1187	2420.0
1188	2418.0
1189	2384.0
1190	2467.0
1191	2488.0
1192	2469.0
1193	2437.0
1194	2443.0
1195	2417.0
1196	2403.0
1197	2403.0
1198	2404.0
1199	2406.0
1200	2468.0
1201	2516.0
1202	2575.0
1203	2573.0
1204	2493.0
1205	2441.0
1206	2425.0
1207	2420.0
1208	2464.0
1209	2479.0
1210	2423.0
1211	2414.0
1212	2414.0
1213	2411.0
1214	2402.0
1215	2400.0
1216	2442.0
1217	2441.0
1218	2473.0
1219	2405.0
1220	2392.0
1221	2424.0
1222	2405.0
1223	2391.0
1224	2408.0
1225	2459.0
1226	2445.0
1227	2428.0
1228	2395.0
1229	2407.0
1230	2414.0
1231	2495.0
1232	2543.0
1233	2492.0
1234	2453.0
1235	2437.0
1236	2454.0
1237	2437.0
1238	2437.0
1239	2423.0
1240	2415.0
1241	2414.0
1242	2521.0
1243	2513.0
1244	2472.0
1245	2458.0
1246	2447.0
1247	2437.0
1248	2429.0
1249	2444.0
1250	2415.0
1251	2436.0
1252	2433.0
1253	2457.0
1254	2481.0
1255	2473.0
1256	2458.0
1257	2446.0
1258	2469.0
1259	2427.0
1260	2411.0
1261	2407.0
1262	2425.0
1263	2425.0
1264	2417.0
1265	2372.0
1266	2353.0
1267	2342.0
1268	2288.0
1269	2287.0
1270	2282.0
1271	2268.0
1272	2255.0
1273	2256.0
1274	2210.0
1275	2202.0
1276	2318.0
1277	2336.0
1278	2215.0
1279	2139.0
1280	2092.0
1281	2056.0
1282	2052.0
1283	2005.0
1284	2013.0
1285	1998.0
1286	1969.0
1287	1961.0
1288	1949.0
1289	1923.0
1290	1906.0
1291	1920.0
1292	1943.0
1293	1963.0
1294	2039.0
1295	2060.0
1296	1992.0
1297	1960.0
1298	1912.0
1299	1898.0
1300	1925.0
1301	1921.0
1302	1889.0
1303	1853.0
1304	1873.0
1305	1877.0
1306	1888.0
1307	1899.0
1308	1945.0
1309	1943.0
1310	1937.0
1311	1930.0
1312	1918.0
1313	1907.0
1314	1910.0
1315	2002.0
1316	1999.0
1317	1934.0
1318	1911.0
1319	1885.0
1320	1868.0
1321	1921.0
1322	1964.0
1323	1974.0
1324	1959.0
1325	1921.0
1326	1915.0
1327	1903.0
1328	1931.0
1329	1914.0
1330	1904.0
1331	1908.0
1332	1912.0
1333	1901.0
1334	1906.0
1335	1929.0
1336	1957.0
1337	1942.0
1338	1917.0
1339	2143.0
1340	2191.0
1341	2111.0
1342	2077.0
1343	2078.0
1344	2057.0
1345	2010.0
1346	2020.0
1347	1982.0
1348	1932.0
1349	1914.0
1350	1904.0
1351	1882.0
1352	1925.0
1353	1969.0
1354	1998.0
1355	1987.0
1356	1975.0
1357	2101.0
1358	2133.0
1359	2039.0
1360	2130.0
1361	2140.0
1362	2066.0
1363	2033.0
1364	2047.0
1365	2057.0
1366	1995.0
1367	2045.0
1368	2044.0
1369	1978.0
1370	1950.0
1371	1952.0
1372	1932.0
1373	1892.0
1374	1910.0
1375	1955.0
1376	1984.0
1377	1959.0
1378	1915.0
1379	1922.0
1380	1954.0
1381	1957.0
1382	1935.0
1383	1934.0
1384	1919.0
1385	1921.0
1386	1908.0
1387	1923.0
1388	1931.0
1389	1939.0
1390	1920.0
1391	1926.0
1392	1945.0
1393	1921.0
1394	1916.0
1395	1908.0
1396	1958.0
1397	1945.0
1398	1916.0
1399	1913.0
1400	2576.0
1401	2733.0
1402	2354.0
1403	2131.0
1404	2158.0
1405	2132.0
1406	2021.0
1407	2198.0
1408	2194.0
1409	2050.0
1410	1995.0
1411	2001.0
1412	1967.0
1413	1954.0
1414	1934.0
1415	1930.0
1416	1923.0
1417	1913.0
1418	1924.0
1419	1925.0
1420	1928.0
1421	1908.0
1422	1893.0
1423	1900.0
1424	1908.0
1425	1917.0
1426	1895.0
1427	1910.0
1428	1892.0
1429	1959.0
1430	2004.0
1431	1971.0
1432	1916.0
1433	1909.0
1434	1960.0
1435	2023.0
1436	2051.0
1437	2022.0
1438	1978.0
1439	2135.0
1440	2144.0
1441	2006.0
1442	1966.0
1443	1972.0
1444	1968.0
1445	1949.0
1446	1962.0
1447	1961.0
1448	1951.0
1449	1924.0
1450	1921.0
1451	1928.0
1452	1910.0
1453	1920.0
1454	1928.0
1455	1944.0
1456	1921.0
1457	1904.0
1458	1889.0
1459	2063.0
1460	2127.0
1461	2012.0
1462	2019.0
1463	1995.0
1464	1982.0
1465	1921.0
1466	1887.0
1467	1907.0
1468	1932.0
1469	1933.0
1470	1915.0
1471	1908.0
1472	1896.0
1473	1909.0
1474	1919.0
1475	1917.0
1476	1913.0
1477	1927.0
1478	1927.0
1479	1965.0
1480	1953.0
1481	1983.0
1482	1968.0
1483	1919.0
1484	1916.0
1485	1933.0
1486	1947.0
1487	1916.0
1488	1904.0
1489	1919.0
1490	1961.0
1491	1948.0
1492	1983.0
1493	1977.0
1494	1977.0
1495	1969.0
1496	1897.0
1497	1919.0
1498	1901.0
1499	1918.0
1500	1927.0
1501	1934.0
1502	2027.0
1503	2061.0
1504	2000.0
1505	1965.0
1506	2071.0
1507	2105.0
1508	2215.0
1509	2191.0
1510	2076.0
1511	2020.0
1512	2096.0
1513	2081.0
1514	2027.0
1515	1990.0
1516	1967.0
1517	1979.0
1518	1968.0
1519	1935.0
1520	1926.0
1521	1934.0
1522	1918.0
1523	1921.0
1524	1896.0
1525	1888.0
1526	1898.0
1527	1921.0
1528	1940.0
1529	1957.0
1530	1960.0
1531	1936.0
1532	2045.0
1533	2059.0
1534	1998.0
1535	1935.0
1536	1896.0
1537	1900.0
1538	1925.0
1539	1951.0
1540	1964.0
1541	1991.0
1542	1966.0
1543	1957.0
1544	1944.0
1545	1942.0
1546	1951.0
1547	1953.0
1548	1963.0
1549	1965.0
1550	1926.0
1551	1922.0
1552	1955.0
1553	1959.0
1554	1949.0
1555	1932.0
1556	1928.0
1557	1906.0
1558	1925.0
1559	1920.0
1560	1937.0
1561	1939.0
1562	1933.0
1563	1940.0
1564	1935.0
1565	1944.0
1566	1914.0
1567	1887.0
1568	1908.0
1569	1920.0
1570	1916.0
1571	1963.0
1572	1948.0
1573	1932.0
1574	1919.0
1575	1871.0
1576	1865.0
1577	2040.0
1578	2130.0
1579	2062.0
1580	2010.0
1581	1942.0
1582	1929.0
1583	1922.0
1584	1926.0
1585	1938.0
1586	1921.0
1587	1927.0
1588	1943.0
1589	1926.0
1590	1934.0
1591	1947.0
1592	2079.0
1593	2105.0
1594	2047.0
1595	2031.0
1596	1990.0
1597	1980.0
1598	1965.0
1599	1914.0
1600	1885.0
1601	1876.0
1602	1897.0
1603	1909.0
1604	1947.0
1605	1964.0
1606	1963.0
1607	1924.0
1608	1923.0
1609	1965.0
1610	1946.0
1611	1937.0
1612	1920.0
1613	1919.0
1614	1910.0
1615	1905.0
1616	2005.0
1617	2060.0
1618	2018.0
1619	1983.0
1620	1959.0
1621	1924.0
1622	1922.0
1623	1908.0
1624	1910.0
1625	1912.0
1626	1917.0
1627	1909.0
1628	1913.0
1629	1889.0
1630	1880.0
1631	1934.0
1632	1960.0
1633	1954.0
1634	1949.0
1635	1949.0
1636	1930.0
1637	1931.0
1638	1959.0
1639	1967.0
1640	1920.0
1641	1899.0
1642	1888.0
1643	1910.0
1644	1928.0
1645	1883.0
1646	1914.0
1647	1935.0
1648	1956.0
1649	1946.0
1650	1947.0
1651	1932.0
1652	1904.0
1653	1911.0
1654	1903.0
1655	1934.0
1656	1931.0
1657	1941.0
1658	1925.0
1659	1940.0
1660	1890.0
1661	1865.0
1662	1875.0
1663	1894.0
1664	1907.0
1665	1914.0
1666	1946.0
1667	1963.0
1668	1974.0
1669	1968.0
1670	1953.0
1671	1942.0
1672	1950.0
1673	1932.0
1674	1928.0
1675	1958.0
1676	1947.0
1677	1952.0
1678	1950.0
1679	1927.0
1680	1873.0
1681	1893.0
1682	1923.0
1683	1936.0
1684	1900.0
1685	1910.0
1686	1918.0
1687	1951.0
1688	1980.0
1689	1937.0
1690	1954.0
1691	1949.0
1692	2085.0
1693	2112.0
1694	2038.0
1695	2001.0
1696	1940.0
1697	1882.0
1698	1863.0
1699	1878.0
1700	1860.0
1701	1857.0
1702	1894.0
1703	1905.0
1704	1895.0
1705	2005.0
1706	2009.0
1707	1963.0
1708	1924.0
1709	1905.0
1710	1910.0
1711	1899.0
1712	1914.0
1713	1917.0
1714	1917.0
1715	1936.0
1716	1959.0
1717	2100.0
1718	2133.0
1719	2055.0
1720	2017.0
1721	1972.0
1722	1946.0
1723	2091.0
1724	2101.0
1725	2040.0
1726	2027.0
1727	2035.0
1728	1988.0
1729	1958.0
1730	1950.0
1731	2097.0
1732	2102.0
1733	2097.0
1734	2092.0
1735	1994.0
1736	1970.0
1737	1953.0
1738	1918.0
1739	1895.0
1740	1911.0
1741	1940.0
1742	1939.0
1743	1916.0
1744	1920.0
1745	1907.0
1746	1903.0
1747	1945.0
1748	1944.0
1749	1935.0
1750	1901.0
1751	1912.0
1752	2059.0
1753	2106.0
1754	2063.0
1755	2115.0
1756	2091.0
1757	2010.0
1758	1981.0
1759	1981.0
1760	1990.0
1761	1966.0
1762	1959.0
1763	1921.0
1764	1927.0
1765	1947.0
1766	1966.0
1767	2034.0
1768	2016.0
1769	1959.0
1770	1927.0
1771	1941.0
1772	1922.0
1773	1913.0
1774	1930.0
1775	1956.0
1776	1956.0
1777	1943.0
1778	1996.0
1779	2004.0
1780	1957.0
1781	1926.0
1782	1941.0
1783	1945.0
1784	1976.0
1785	1978.0
1786	1987.0
1787	1961.0
1788	1954.0
1789	1960.0
1790	1970.0
1791	1950.0
1792	1956.0
1793	1975.0
1794	1968.0
1795	1945.0
1796	1919.0
1797	1893.0
1798	1870.0
1799	1889.0
1800	1876.0
1801	1888.0
1802	1910.0
1803	1878.0
1804	1888.0
1805	1895.0
1806	1885.0
1807	1892.0
1808	1881.0
1809	1907.0
1810	1939.0
1811	1937.0
1812	1949.0
1813	1943.0
1814	1919.0
1815	1921.0
1816	1929.0
1817	1934.0
1818	1935.0
1819	1965.0
1820	1993.0
1821	2020.0
1822	2001.0
1823	1981.0
1824	1956.0
1825	1946.0
1826	1925.0
1827	1968.0
1828	2010.0
1829	1975.0
1830	1968.0
1831	1951.0
1832	1957.0
1833	1919.0
1834	1928.0
1835	1963.0
1836	1952.0
1837	1953.0
1838	1939.0
1839	1949.0
1840	1958.0
1841	1923.0
1842	1901.0
1843	1919.0
1844	2058.0
1845	2096.0
1846	1998.0
1847	1944.0
1848	1994.0
1849	2005.0
1850	2010.0
1851	1975.0
1852	1942.0
1853	1942.0
1854	1977.0
1855	1926.0
1856	1898.0
1857	1904.0
1858	1926.0
1859	1938.0
1860	1930.0
1861	1936.0
1862	1919.0
1863	1931.0
1864	1943.0
1865	1954.0
1866	1943.0
1867	1933.0
1868	1899.0
1869	2028.0
1870	2097.0
1871	2034.0
1872	1988.0
1873	1929.0
1874	1918.0
1875	1926.0
1876	1966.0
1877	1944.0
1878	1940.0
1879	1948.0
1880	1950.0
1881	1949.0
1882	1935.0
1883	1930.0
1884	1919.0
1885	1929.0
1886	1903.0
1887	1878.0
1888	1870.0
1889	1910.0
1890	2001.0
1891	2055.0
1892	2001.0
1893	1951.0
1894	1931.0
1895	1956.0
1896	1945.0
1897	1935.0
1898	1959.0
1899	1952.0
1900	2708.0
1901	2887.0
1902	2443.0
1903	2251.0
1904	2122.0
1905	2029.0
1906	2025.0
1907	2095.0
1908	2065.0
1909	2086.0
1910	2062.0
1911	2001.0
1912	2076.0
1913	2073.0
1914	1975.0
1915	1941.0
1916	1922.0
1917	1912.0
1918	1952.0
1919	1947.0
1920	1960.0
1921	1927.0
1922	1923.0
1923	1924.0
1924	1936.0
1925	1943.0
1926	1941.0
1927	1979.0
1928	1977.0
1929	1970.0
1930	1938.0
1931	1923.0
1932	1948.0
1933	1976.0
1934	1974.0
1935	1977.0
1936	2083.0
1937	2077.0
1938	1980.0
1939	1956.0
1940	1956.0
1941	1930.0
1942	1957.0
1943	1947.0
1944	1926.0
1945	1927.0
1946	1991.0
1947	1995.0
1948	1972.0
1949	1940.0
1950	1934.0
1951	1960.0
1952	1925.0
1953	1964.0
1954	1959.0
1955	2022.0
1956	2033.0
1957	1986.0
1958	1947.0
1959	1926.0
1960	1929.0
1961	1895.0
1962	1899.0
1963	1877.0
1964	1903.0
1965	1911.0
1966	1894.0
1967	1892.0
1968	1916.0
1969	1910.0
1970	1905.0
1971	1892.0
1972	1906.0
1973	1912.0
1974	1892.0
1975	1920.0
1976	1960.0
1977	1946.0
1978	1894.0
1979	1900.0
1980	1888.0
1981	1905.0
1982	1928.0
1983	1950.0
1984	1976.0
1985	1966.0
1986	1942.0
1987	1913.0
1988	1920.0
1989	1903.0
1990	1910.0
1991	1925.0
1992	1941.0
1993	1990.0
1994	1999.0
1995	1937.0
1996	1883.0
1997	1863.0
1998	1872.0
1999	1912.0
2000	1902.0
2001	1913.0
2002	2004.0
2003	2045.0
2004	1988.0
2005	1945.0
2006	1953.0
2007	1921.0
2008	1924.0
2009	1909.0
2010	1894.0
2011	1901.0
2012	1910.0
2013	1884.0
2014	1904.0
2015	1935.0
2016	1925.0
2017	1929.0
2018	1935.0
2019	1929.0
2020	1921.0
2021	1924.0
2022	1954.0
2023	1957.0
2024	1978.0
2025	2003.0
2026	2399.0
2027	2710.0
2028	2500.0
2029	2351.0
2030	2244.0
2031	2098.0
2032	2058.0
2033	2244.0
2034	2267.0
2035	2099.0
2036	2044.0
2037	2020.0
2038	2138.0
2039	2170.0
2040	2078.0
2041	2002.0
2042	1969.0
2043	1974.0
2044	1952.0
2045	1970.0
2046	1979.0
2047	1988.0
