================================================================================
RAMAN SPECTROMETER DEBUG LOG
Timestamp: 2026-01-19T16:08:58.433498
================================================================================

--- CONFIGURATION ---
Port: /dev/ttyUSB0
Baudrate: 9600
Integration time: 200 ms
Timeout: 10.0 s
Expected data points: 2048
Min data points: 2048

--- RAW DATA INFO ---
Total bytes received: 14370
Null bytes count: 1

--- RAW BYTES (first 500, hex) ---
61 0d 0a 41 43 4b 0d 0a 0d 0a 49 32 30 30 0d 0a 
41 43 4b 0d 0a 0d 0a 53 0d 0a 41 43 4b 0d 0a 30 
31 39 33 36 0d 0a 30 31 39 37 32 0d 0a 30 31 39 
35 37 0d 0a 30 31 39 36 31 0d 0a 30 31 39 34 30 
0d 0a 30 31 39 31 37 0d 0a 30 31 39 31 33 0d 0a 
30 31 39 33 38 0d 0a 30 31 39 32 39 0d 0a 30 31 
39 33 38 0d 0a 30 31 39 35 32 0d 0a 30 31 39 36 
30 0d 0a 30 31 39 35 34 0d 0a 30 31 39 34 31 0d 
0a 30 31 39 32 32 0d 0a 30 32 30 30 33 0d 0a 30 
32 30 34 30 0d 0a 30 32 30 30 35 0d 0a 30 31 39 
38 33 0d 0a 30 31 39 34 34 0d 0a 30 31 39 32 34 
0d 0a 30 31 39 34 33 0d 0a 30 32 30 31 31 0d 0a 
30 32 30 32 38 0d 0a 30 32 30 30 31 0d 0a 30 31 
39 38 38 0d 0a 30 31 39 39 38 0d 0a 30 32 30 30 
33 0d 0a 30 32 30 30 31 0d 0a 30 32 30 30 37 0d 
0a 30 32 30 35 37 0d 0a 30 32 30 38 38 0d 0a 30 
32 30 31 37 0d 0a 30 31 39 36 38 0d 0a 30 31 39 
33 38 0d 0a 30 31 39 33 36 0d 0a 30 31 39 35 39 
0d 0a 30 31 39 34 38 0d 0a 30 31 39 32 39 0d 0a 
30 31 39 30 32 0d 0a 30 31 39 35 34 0d 0a 30 31 
39 38 35 0d 0a 30 31 39 38 31 0d 0a 30 31 39 37 
31 0d 0a 30 32 31 30 36 0d 0a 30 32 31 34 36 0d 
0a 30 32 30 37 30 0d 0a 30 31 39 38 37 0d 0a 30 
31 39 35 34 0d 0a 30 31 39 36 32 0d 0a 30 31 39 
38 34 0d 0a 30 31 39 36 38 0d 0a 30 31 39 34 31 
0d 0a 30 31 39 35 32 0d 0a 30 31 39 38 34 0d 0a 
30 31 39 39 33 0d 0a 30 31 39 34 31 0d 0a 30 32 
30 32 38 0d 0a 30 32 30 34 34 0d 0a 30 32 30 31 
30 0d 0a 30 31 39 36 38 0d 0a 30 31 39 33 37 0d 
0a 30 31 39 33 33 0d 0a 30 31 39 34 30 0d 0a 30 
31 39 34 31 0d 0a 30 31 39 32 37 0d 0a 30 32 30 
30 39 0d 0a

--- RAW DATA AS STRING (first 1000 chars) ---
a
ACK

I200
ACK

S
ACK
01936
01972
01957
01961
01940
01917
01913
01938
01929
01938
01952
01960
01954
01941
01922
02003
02040
02005
01983
01944
01924
01943
02011
02028
02001
01988
01998
02003
02001
02007
02057
02088
02017
01968
01938
01936
01959
01948
01929
01902
01954
01985
01981
01971
02106
02146
02070
01987
01954
01962
01984
01968
01941
01952
01984
01993
01941
02028
02044
02010
01968
01937
01933
01940
01941
01927
02009
02033
02000
01969
01968
01941
01945
01936
01956
01940
01953
01966
01964
01970
01993
02001
01952
01938
02597
02757
02392
02191
02069
02027
01972
01949
02053
02078
02032
01976
01954
01924
01939
01957
01987
01983
01977
01959
01908
01913
01950
01983
01954
01942
01934
01955
01960
01966
01990
01989
01984
01951
01944
01966
01988
01947
01977
01996
01986
01970
01974
01975
01960
01943
01948
01950
01967
02011
02009
01987
01969
01971
019

--- PARSED VALUES ---
Total parsed values: 2048
Min value: 1876.0
Max value: 4306.0
Mean value: 2220.078
Saturated values (>=65535): 0
First 20 values: [1936.0, 1972.0, 1957.0, 1961.0, 1940.0, 1917.0, 1913.0, 1938.0, 1929.0, 1938.0, 1952.0, 1960.0, 1954.0, 1941.0, 1922.0, 2003.0, 2040.0, 2005.0, 1983.0, 1944.0]
Last 20 values: [2295.0, 2206.0, 2156.0, 2057.0, 2004.0, 2133.0, 2175.0, 2089.0, 2029.0, 2002.0, 2074.0, 2093.0, 2019.0, 2010.0, 2005.0, 2020.0, 1989.0, 1959.0, 1968.0, 1949.0]

--- FULL SPECTRUM DATA (one value per line) ---
0	1936.0
1	1972.0
2	1957.0
3	1961.0
4	1940.0
5	1917.0
6	1913.0
7	1938.0
8	1929.0
9	1938.0
10	1952.0
11	1960.0
12	1954.0
13	1941.0
14	1922.0
15	2003.0
16	2040.0
17	2005.0
18	1983.0
19	1944.0
20	1924.0
21	1943.0
22	2011.0
23	2028.0
24	2001.0
25	1988.0
26	1998.0
27	2003.0
28	2001.0
29	2007.0
30	2057.0
31	2088.0
32	2017.0
33	1968.0
34	1938.0
35	1936.0
36	1959.0
37	1948.0
38	1929.0
39	1902.0
40	1954.0
41	1985.0
42	1981.0
43	1971.0
44	2106.0
45	2146.0
46	2070.0
47	1987.0
48	1954.0
49	1962.0
50	1984.0
51	1968.0
52	1941.0
53	1952.0
54	1984.0
55	1993.0
56	1941.0
57	2028.0
58	2044.0
59	2010.0
60	1968.0
61	1937.0
62	1933.0
63	1940.0
64	1941.0
65	1927.0
66	2009.0
67	2033.0
68	2000.0
69	1969.0
70	1968.0
71	1941.0
72	1945.0
73	1936.0
74	1956.0
75	1940.0
76	1953.0
77	1966.0
78	1964.0
79	1970.0
80	1993.0
81	2001.0
82	1952.0
83	1938.0
84	2597.0
85	2757.0
86	2392.0
87	2191.0
88	2069.0
89	2027.0
90	1972.0
91	1949.0
92	2053.0
93	2078.0
94	2032.0
95	1976.0
96	1954.0
97	1924.0
98	1939.0
99	1957.0
100	1987.0
101	1983.0
102	1977.0
103	1959.0
104	1908.0
105	1913.0
106	1950.0
107	1983.0
108	1954.0
109	1942.0
110	1934.0
111	1955.0
112	1960.0
113	1966.0
114	1990.0
115	1989.0
116	1984.0
117	1951.0
118	1944.0
119	1966.0
120	1988.0
121	1947.0
122	1977.0
123	1996.0
124	1986.0
125	1970.0
126	1974.0
127	1975.0
128	1960.0
129	1943.0
130	1948.0
131	1950.0
132	1967.0
133	2011.0
134	2009.0
135	1987.0
136	1969.0
137	1971.0
138	1940.0
139	1927.0
140	1930.0
141	2202.0
142	2260.0
143	2082.0
144	2028.0
145	1993.0
146	2021.0
147	1995.0
148	2021.0
149	2034.0
150	2009.0
151	1954.0
152	1926.0
153	1973.0
154	2009.0
155	2033.0
156	1997.0
157	1960.0
158	1960.0
159	1981.0
160	1961.0
161	1958.0
162	1998.0
163	2008.0
164	1984.0
165	1936.0
166	1924.0
167	1944.0
168	1953.0
169	1953.0
170	1969.0
171	1969.0
172	1969.0
173	1937.0
174	1929.0
175	1955.0
176	1948.0
177	1940.0
178	1917.0
179	1932.0
180	1927.0
181	1940.0
182	1927.0
183	1950.0
184	1955.0
185	1946.0
186	1942.0
187	1941.0
188	1945.0
189	2024.0
190	2031.0
191	2004.0
192	1995.0
193	1983.0
194	2007.0
195	2011.0
196	2008.0
197	1990.0
198	1988.0
199	1957.0
200	1954.0
201	1954.0
202	1950.0
203	1948.0
204	1940.0
205	1950.0
206	1942.0
207	1925.0
208	1909.0
209	1939.0
210	1958.0
211	1990.0
212	2009.0
213	2058.0
214	2184.0
215	2188.0
216	2115.0
217	2060.0
218	2041.0
219	2024.0
220	2014.0
221	1955.0
222	1915.0
223	1912.0
224	1912.0
225	1917.0
226	1919.0
227	1937.0
228	1935.0
229	1939.0
230	1926.0
231	1958.0
232	1936.0
233	2075.0
234	2098.0
235	2026.0
236	2000.0
237	2012.0
238	2028.0
239	2009.0
240	1993.0
241	2222.0
242	2270.0
243	2182.0
244	2134.0
245	2064.0
246	2053.0
247	2124.0
248	2128.0
249	2045.0
250	1999.0
251	1986.0
252	1975.0
253	1974.0
254	1971.0
255	1960.0
256	1930.0
257	1930.0
258	1939.0
259	1958.0
260	1956.0
261	1954.0
262	1964.0
263	1984.0
264	1986.0
265	2110.0
266	2135.0
267	2047.0
268	2007.0
269	1983.0
270	1968.0
271	1942.0
272	1933.0
273	1931.0
274	1963.0
275	1940.0
276	1941.0
277	1952.0
278	1950.0
279	1967.0
280	1944.0
281	1960.0
282	1980.0
283	2002.0
284	1969.0
285	1962.0
286	1950.0
287	1987.0
288	1990.0
289	1956.0
290	1976.0
291	1966.0
292	1975.0
293	1963.0
294	1948.0
295	1925.0
296	1929.0
297	1922.0
298	1931.0
299	1951.0
300	1958.0
301	1951.0
302	1958.0
303	1978.0
304	1980.0
305	1998.0
306	1991.0
307	1975.0
308	1966.0
309	2015.0
310	2045.0
311	2023.0
312	1969.0
313	1957.0
314	2019.0
315	2025.0
316	2001.0
317	1959.0
318	1942.0
319	1941.0
320	1955.0
321	1941.0
322	1961.0
323	1964.0
324	1950.0
325	1958.0
326	1977.0
327	1975.0
328	1936.0
329	2046.0
330	2067.0
331	2054.0
332	2046.0
333	2008.0
334	1976.0
335	2056.0
336	2075.0
337	2020.0
338	1978.0
339	1968.0
340	1974.0
341	1971.0
342	1958.0
343	1942.0
344	1950.0
345	1936.0
346	1975.0
347	1948.0
348	1942.0
349	1933.0
350	1925.0
351	1937.0
352	1923.0
353	1928.0
354	1940.0
355	1979.0
356	2012.0
357	2039.0
358	2015.0
359	2008.0
360	1973.0
361	1983.0
362	1964.0
363	1976.0
364	2002.0
365	1990.0
366	1973.0
367	1961.0
368	1965.0
369	1941.0
370	1941.0
371	1945.0
372	1970.0
373	1940.0
374	1936.0
375	1940.0
376	1979.0
377	2008.0
378	1982.0
379	1998.0
380	2030.0
381	2033.0
382	1992.0
383	1956.0
384	1945.0
385	1958.0
386	1957.0
387	1973.0
388	1986.0
389	1973.0
390	1954.0
391	2022.0
392	2050.0
393	1997.0
394	1969.0
395	1926.0
396	1952.0
397	1957.0
398	1971.0
399	1963.0
400	1958.0
401	1940.0
402	1919.0
403	1927.0
404	1967.0
405	2001.0
406	1962.0
407	1970.0
408	1948.0
409	1974.0
410	1971.0
411	1972.0
412	1952.0
413	1962.0
414	1970.0
415	1967.0
416	1970.0
417	1940.0
418	1936.0
419	1989.0
420	2023.0
421	1990.0
422	2018.0
423	2015.0
424	2015.0
425	2019.0
426	2005.0
427	1997.0
428	1983.0
429	1967.0
430	1944.0
431	1970.0
432	1966.0
433	1960.0
434	1929.0
435	1922.0
436	2020.0
437	2047.0
438	2002.0
439	1969.0
440	2088.0
441	2122.0
442	2036.0
443	1972.0
444	1964.0
445	2060.0
446	2089.0
447	2015.0
448	2003.0
449	1987.0
450	1978.0
451	1960.0
452	1937.0
453	1936.0
454	1937.0
455	1982.0
456	1985.0
457	1987.0
458	1977.0
459	1992.0
460	1969.0
461	1993.0
462	1996.0
463	1997.0
464	1981.0
465	1956.0
466	1946.0
467	1945.0
468	1973.0
469	1941.0
470	1919.0
471	1917.0
472	1973.0
473	1977.0
474	2031.0
475	2009.0
476	1982.0
477	1983.0
478	2001.0
479	2022.0
480	2023.0
481	2017.0
482	1979.0
483	1972.0
484	1980.0
485	1979.0
486	1945.0
487	1941.0
488	1937.0
489	1960.0
490	1937.0
491	1922.0
492	1962.0
493	1995.0
494	2026.0
495	2018.0
496	2005.0
497	1991.0
498	1981.0
499	1963.0
500	1990.0
501	1993.0
502	1992.0
503	1997.0
504	1993.0
505	1979.0
506	1982.0
507	1989.0
508	1953.0
509	1926.0
510	1920.0
511	1921.0
512	1920.0
513	1933.0
514	1960.0
515	1968.0
516	1952.0
517	1955.0
518	2073.0
519	2080.0
520	2045.0
521	2005.0
522	1981.0
523	1970.0
524	1968.0
525	1968.0
526	1955.0
527	1945.0
528	1959.0
529	1968.0
530	1967.0
531	1950.0
532	1947.0
533	1934.0
534	1915.0
535	1943.0
536	1950.0
537	1944.0
538	1912.0
539	1931.0
540	1966.0
541	1998.0
542	2003.0
543	1965.0
544	1975.0
545	1964.0
546	1947.0
547	1943.0
548	1960.0
549	1973.0
550	2005.0
551	2005.0
552	1979.0
553	2010.0
554	2016.0
555	1977.0
556	1953.0
557	1939.0
558	1939.0
559	1962.0
560	1962.0
561	1959.0
562	1933.0
563	1937.0
564	1955.0
565	1957.0
566	1968.0
567	1978.0
568	1961.0
569	1952.0
570	1967.0
571	1939.0
572	1957.0
573	1986.0
574	2002.0
575	1988.0
576	1978.0
577	1956.0
578	1941.0
579	1964.0
580	1943.0
581	1940.0
582	1948.0
583	1958.0
584	1943.0
585	1987.0
586	2016.0
587	2036.0
588	2008.0
589	1991.0
590	1969.0
591	1962.0
592	1963.0
593	1929.0
594	1946.0
595	1928.0
596	1994.0
597	2040.0
598	2014.0
599	1971.0
600	1972.0
601	1953.0
602	1956.0
603	1942.0
604	1918.0
605	1964.0
606	1987.0
607	1997.0
608	1985.0
609	2086.0
610	2108.0
611	2032.0
612	1986.0
613	1968.0
614	1946.0
615	1977.0
616	1981.0
617	1956.0
618	1945.0
619	1949.0
620	1966.0
621	1964.0
622	1935.0
623	1911.0
624	1934.0
625	1949.0
626	1940.0
627	1921.0
628	1930.0
629	1949.0
630	1931.0
631	1964.0
632	1978.0
633	1970.0
634	1965.0
635	1987.0
636	1981.0
637	1966.0
638	2274.0
639	2349.0
640	2160.0
641	2045.0
642	1983.0
643	2027.0
644	2051.0
645	1983.0
646	1947.0
647	1941.0
648	1968.0
649	1980.0
650	1996.0
651	1969.0
652	1948.0
653	1922.0
654	1921.0
655	1912.0
656	1915.0
657	1942.0
658	1950.0
659	1989.0
660	1967.0
661	1957.0
662	1986.0
663	2001.0
664	1972.0
665	1925.0
666	1945.0
667	1969.0
668	1975.0
669	1942.0
670	1939.0
671	1947.0
672	1959.0
673	1940.0
674	1948.0
675	1991.0
676	1970.0
677	1926.0
678	1911.0
679	1936.0
680	1989.0
681	2044.0
682	2009.0
683	2000.0
684	1976.0
685	1959.0
686	1927.0
687	1942.0
688	2050.0
689	2063.0
690	2017.0
691	1968.0
692	1965.0
693	2018.0
694	2033.0
695	2001.0
696	2008.0
697	1959.0
698	1928.0
699	1929.0
700	1959.0
701	1922.0
702	1922.0
703	1959.0
704	1986.0
705	1985.0
706	1970.0
707	1973.0
708	1951.0
709	1949.0
710	1996.0
711	2019.0
712	1969.0
713	1959.0
714	1952.0
715	1958.0
716	1944.0
717	1965.0
718	1996.0
719	1998.0
720	2001.0
721	1965.0
722	1940.0
723	1946.0
724	1979.0
725	2042.0
726	2050.0
727	1996.0
728	1965.0
729	1953.0
730	1956.0
731	1962.0
732	1951.0
733	1973.0
734	2009.0
735	2047.0
736	2163.0
737	2202.0
738	2139.0
739	2068.0
740	2028.0
741	1985.0
742	1980.0
743	1948.0
744	1965.0
745	1983.0
746	1962.0
747	2001.0
748	2053.0
749	2027.0
750	1988.0
751	1956.0
752	2003.0
753	2021.0
754	1982.0
755	1959.0
756	1940.0
757	2046.0
758	2039.0
759	1990.0
760	1966.0
761	1953.0
762	1956.0
763	1986.0
764	1980.0
765	1974.0
766	1969.0
767	1946.0
768	1922.0
769	1911.0
770	1945.0
771	1944.0
772	1944.0
773	1941.0
774	1940.0
775	1966.0
776	1998.0
777	1985.0
778	1965.0
779	1956.0
780	1965.0
781	1987.0
782	1995.0
783	2007.0
784	2003.0
785	1970.0
786	1914.0
787	1911.0
788	1958.0
789	1977.0
790	1976.0
791	1954.0
792	1932.0
793	1933.0
794	1930.0
795	1917.0
796	1936.0
797	1921.0
798	1953.0
799	1994.0
800	2025.0
801	2005.0
802	1977.0
803	1954.0
804	1954.0
805	1974.0
806	1957.0
807	1972.0
808	1952.0
809	1963.0
810	1971.0
811	1961.0
812	1999.0
813	2049.0
814	2027.0
815	1996.0
816	1952.0
817	1920.0
818	1926.0
819	1979.0
820	2013.0
821	2000.0
822	2027.0
823	2006.0
824	1990.0
825	1954.0
826	1959.0
827	1989.0
828	2011.0
829	2008.0
830	1953.0
831	1950.0
832	1953.0
833	1981.0
834	1948.0
835	1919.0
836	1916.0
837	1944.0
838	1933.0
839	1923.0
840	1932.0
841	1981.0
842	1982.0
843	1941.0
844	1939.0
845	1938.0
846	1952.0
847	1938.0
848	1962.0
849	1966.0
850	1954.0
851	1965.0
852	2045.0
853	2023.0
854	1967.0
855	2187.0
856	2186.0
857	2091.0
858	2021.0
859	1999.0
860	1995.0
861	1990.0
862	2023.0
863	2027.0
864	2018.0
865	1996.0
866	1968.0
867	1947.0
868	1946.0
869	1933.0
870	1945.0
871	1982.0
872	2022.0
873	1990.0
874	1993.0
875	1981.0
876	1970.0
877	1954.0
878	1974.0
879	1983.0
880	1973.0
881	1960.0
882	1912.0
883	1914.0
884	1941.0
885	1959.0
886	1954.0
887	1962.0
888	1954.0
889	1996.0
890	2006.0
891	1993.0
892	2009.0
893	2021.0
894	2001.0
895	1972.0
896	1959.0
897	1962.0
898	1977.0
899	1987.0
900	1999.0
901	1981.0
902	1978.0
903	2031.0
904	2004.0
905	1953.0
906	1965.0
907	1984.0
908	2027.0
909	2032.0
910	1991.0
911	1993.0
912	1999.0
913	2006.0
914	1986.0
915	1963.0
916	1978.0
917	2197.0
918	2267.0
919	2125.0
920	2067.0
921	2011.0
922	1990.0
923	1974.0
924	1960.0
925	1937.0
926	1961.0
927	1944.0
928	1942.0
929	1942.0
930	1955.0
931	1983.0
932	1996.0
933	1984.0
934	1996.0
935	2034.0
936	2015.0
937	2006.0
938	2024.0
939	2027.0
940	1996.0
941	1999.0
942	1993.0
943	1937.0
944	1933.0
945	1955.0
946	1979.0
947	1964.0
948	1975.0
949	1971.0
950	1992.0
951	1992.0
952	1987.0
953	1971.0
954	1932.0
955	1930.0
956	1957.0
957	1974.0
958	1972.0
959	1964.0
960	1931.0
961	1931.0
962	1977.0
963	2020.0
964	1983.0
965	1975.0
966	1992.0
967	2018.0
968	2012.0
969	1959.0
970	1964.0
971	1967.0
972	1996.0
973	2028.0
974	2032.0
975	2004.0
976	1992.0
977	1976.0
978	1957.0
979	1953.0
980	1951.0
981	1986.0
982	2007.0
983	2232.0
984	2262.0
985	2145.0
986	2057.0
987	2025.0
988	1993.0
989	2003.0
990	2030.0
991	2047.0
992	2046.0
993	2030.0
994	2046.0
995	2110.0
996	2157.0
997	2160.0
998	2163.0
999	2140.0
1000	2167.0
1001	2182.0
1002	2184.0
1003	2205.0
1004	2237.0
1005	2302.0
1006	2340.0
1007	2340.0
1008	2368.0
1009	2434.0
1010	2498.0
1011	2562.0
1012	2575.0
1013	2564.0
1014	2587.0
1015	2649.0
1016	2681.0
1017	2701.0
1018	2744.0
1019	2738.0
1020	2758.0
1021	2794.0
1022	2822.0
1023	2834.0
1024	2829.0
1025	2820.0
1026	2831.0
1027	2869.0
1028	2904.0
1029	2947.0
1030	2940.0
1031	2995.0
1032	3008.0
1033	2993.0
1034	3014.0
1035	3048.0
1036	3023.0
1037	3035.0
1038	3059.0
1039	3096.0
1040	3119.0
1041	3239.0
1042	3248.0
1043	3175.0
1044	3182.0
1045	3195.0
1046	3221.0
1047	3383.0
1048	3426.0
1049	3301.0
1050	3268.0
1051	3249.0
1052	3257.0
1053	3243.0
1054	3231.0
1055	3220.0
1056	3213.0
1057	3249.0
1058	3283.0
1059	3330.0
1060	3340.0
1061	3372.0
1062	3443.0
1063	3453.0
1064	3374.0
1065	3350.0
1066	3373.0
1067	3403.0
1068	3430.0
1069	3499.0
1070	3593.0
1071	3596.0
1072	3554.0
1073	3519.0
1074	3503.0
1075	3505.0
1076	3527.0
1077	3535.0
1078	3555.0
1079	3596.0
1080	3608.0
1081	3597.0
1082	3566.0
1083	3592.0
1084	3615.0
1085	3649.0
1086	3660.0
1087	3660.0
1088	3702.0
1089	3726.0
1090	3698.0
1091	3679.0
1092	3674.0
1093	3653.0
1094	3689.0
1095	3679.0
1096	3693.0
1097	3692.0
1098	3735.0
1099	3753.0
1100	3786.0
1101	4091.0
1102	4167.0
1103	3944.0
1104	3811.0
1105	3778.0
1106	3785.0
1107	3797.0
1108	3748.0
1109	3799.0
1110	3905.0
1111	3917.0
1112	3849.0
1113	3841.0
1114	3799.0
1115	3782.0
1116	3792.0
1117	3820.0
1118	3851.0
1119	3904.0
1120	3910.0
1121	3857.0
1122	3976.0
1123	4057.0
1124	3996.0
1125	3933.0
1126	3920.0
1127	3914.0
1128	3940.0
1129	3908.0
1130	3892.0
1131	3917.0
1132	3921.0
1133	3917.0
1134	3914.0
1135	3976.0
1136	3991.0
1137	3964.0
1138	3932.0
1139	3953.0
1140	3972.0
1141	4112.0
1142	4152.0
1143	4051.0
1144	3995.0
1145	3938.0
1146	3941.0
1147	3950.0
1148	4007.0
1149	4037.0
1150	4027.0
1151	4036.0
1152	4038.0
1153	4043.0
1154	4057.0
1155	4028.0
1156	4075.0
1157	4121.0
1158	4066.0
1159	4067.0
1160	4060.0
1161	4070.0
1162	4085.0
1163	4108.0
1164	4104.0
1165	4109.0
1166	4109.0
1167	4110.0
1168	4098.0
1169	4049.0
1170	4022.0
1171	4025.0
1172	4045.0
1173	4009.0
1174	4088.0
1175	4117.0
1176	4115.0
1177	4176.0
1178	4188.0
1179	4174.0
1180	4182.0
1181	4218.0
1182	4206.0
1183	4145.0
1184	4095.0
1185	4117.0
1186	4141.0
1187	4119.0
1188	4129.0
1189	4156.0
1190	4190.0
1191	4204.0
1192	4178.0
1193	4173.0
1194	4180.0
1195	4131.0
1196	4098.0
1197	4090.0
1198	4126.0
1199	4112.0
1200	4138.0
1201	4132.0
1202	4174.0
1203	4195.0
1204	4135.0
1205	4134.0
1206	4130.0
1207	4104.0
1208	4126.0
1209	4167.0
1210	4134.0
1211	4111.0
1212	4111.0
1213	4148.0
1214	4156.0
1215	4162.0
1216	4128.0
1217	4073.0
1218	4080.0
1219	4105.0
1220	4090.0
1221	4087.0
1222	4095.0
1223	4094.0
1224	4143.0
1225	4180.0
1226	4180.0
1227	4195.0
1228	4177.0
1229	4195.0
1230	4204.0
1231	4292.0
1232	4306.0
1233	4254.0
1234	4144.0
1235	4135.0
1236	4151.0
1237	4157.0
1238	4171.0
1239	4203.0
1240	4180.0
1241	4183.0
1242	4258.0
1243	4270.0
1244	4258.0
1245	4237.0
1246	4250.0
1247	4242.0
1248	4228.0
1249	4225.0
1250	4218.0
1251	4196.0
1252	4171.0
1253	4142.0
1254	4137.0
1255	4135.0
1256	4132.0
1257	4153.0
1258	4138.0
1259	4124.0
1260	4094.0
1261	4076.0
1262	4070.0
1263	4057.0
1264	3988.0
1265	3935.0
1266	3905.0
1267	3826.0
1268	3772.0
1269	3683.0
1270	3604.0
1271	3546.0
1272	3477.0
1273	3366.0
1274	3263.0
1275	3175.0
1276	3152.0
1277	3013.0
1278	2842.0
1279	2727.0
1280	2612.0
1281	2563.0
1282	2483.0
1283	2428.0
1284	2350.0
1285	2282.0
1286	2209.0
1287	2175.0
1288	2125.0
1289	2105.0
1290	2082.0
1291	2037.0
1292	2006.0
1293	1941.0
1294	1990.0
1295	1997.0
1296	1948.0
1297	1951.0
1298	1961.0
1299	1960.0
1300	1958.0
1301	1909.0
1302	1918.0
1303	1946.0
1304	1962.0
1305	1946.0
1306	1944.0
1307	1960.0
1308	1948.0
1309	1961.0
1310	1944.0
1311	1927.0
1312	1914.0
1313	1933.0
1314	1929.0
1315	1982.0
1316	2003.0
1317	1960.0
1318	1955.0
1319	1919.0
1320	1918.0
1321	1918.0
1322	1915.0
1323	1911.0
1324	1953.0
1325	1962.0
1326	1953.0
1327	1947.0
1328	1967.0
1329	1974.0
1330	1951.0
1331	1948.0
1332	1942.0
1333	1967.0
1334	1930.0
1335	1931.0
1336	1949.0
1337	1978.0
1338	1980.0
1339	2084.0
1340	2118.0
1341	2073.0
1342	2078.0
1343	2051.0
1344	2090.0
1345	2064.0
1346	2063.0
1347	2023.0
1348	2005.0
1349	1997.0
1350	2004.0
1351	2002.0
1352	1975.0
1353	1949.0
1354	1957.0
1355	1982.0
1356	1962.0
1357	2026.0
1358	2015.0
1359	1971.0
1360	2045.0
1361	2081.0
1362	2003.0
1363	1988.0
1364	2014.0
1365	2018.0
1366	1979.0
1367	2025.0
1368	2046.0
1369	1999.0
1370	1992.0
1371	1975.0
1372	1971.0
1373	1926.0
1374	1942.0
1375	1959.0
1376	1964.0
1377	1947.0
1378	1928.0
1379	1946.0
1380	1974.0
1381	1968.0
1382	1966.0
1383	1983.0
1384	1956.0
1385	1942.0
1386	1955.0
1387	1966.0
1388	1966.0
1389	1968.0
1390	1942.0
1391	1922.0
1392	1955.0
1393	1966.0
1394	1959.0
1395	1951.0
1396	1969.0
1397	1974.0
1398	1980.0
1399	1952.0
1400	2352.0
1401	2451.0
1402	2219.0
1403	2098.0
1404	2107.0
1405	2081.0
1406	2004.0
1407	2449.0
1408	2525.0
1409	2246.0
1410	2075.0
1411	2008.0
1412	1960.0
1413	1982.0
1414	1990.0
1415	1974.0
1416	1932.0
1417	1919.0
1418	1946.0
1419	1941.0
1420	1955.0
1421	1963.0
1422	1987.0
1423	1964.0
1424	1959.0
1425	1948.0
1426	1961.0
1427	1977.0
1428	1979.0
1429	1987.0
1430	1967.0
1431	1958.0
1432	1972.0
1433	1974.0
1434	2030.0
1435	2049.0
1436	2037.0
1437	2044.0
1438	2004.0
1439	2100.0
1440	2113.0
1441	2055.0
1442	2006.0
1443	1993.0
1444	1971.0
1445	1977.0
1446	1989.0
1447	1970.0
1448	1947.0
1449	1916.0
1450	1931.0
1451	1905.0
1452	1898.0
1453	1897.0
1454	1916.0
1455	1947.0
1456	1937.0
1457	1954.0
1458	1935.0
1459	2046.0
1460	2058.0
1461	2015.0
1462	1999.0
1463	1977.0
1464	1979.0
1465	1975.0
1466	1966.0
1467	1948.0
1468	1963.0
1469	1980.0
1470	2002.0
1471	1972.0
1472	1939.0
1473	1923.0
1474	1937.0
1475	1951.0
1476	1972.0
1477	1962.0
1478	1950.0
1479	1976.0
1480	1962.0
1481	1985.0
1482	1981.0
1483	1948.0
1484	1951.0
1485	1977.0
1486	1963.0
1487	1976.0
1488	1970.0
1489	1981.0
1490	1997.0
1491	1961.0
1492	1968.0
1493	1995.0
1494	2029.0
1495	2014.0
1496	1992.0
1497	1962.0
1498	1980.0
1499	1972.0
1500	1983.0
1501	1941.0
1502	1981.0
1503	2010.0
1504	1971.0
1505	1975.0
1506	2054.0
1507	2103.0
1508	2170.0
1509	2156.0
1510	2058.0
1511	2004.0
1512	2058.0
1513	2058.0
1514	2003.0
1515	1961.0
1516	1952.0
1517	1943.0
1518	1974.0
1519	1953.0
1520	1944.0
1521	1941.0
1522	1967.0
1523	1958.0
1524	1959.0
1525	1940.0
1526	1946.0
1527	1955.0
1528	1945.0
1529	1936.0
1530	1928.0
1531	1952.0
1532	2014.0
1533	2034.0
1534	1985.0
1535	1978.0
1536	1942.0
1537	1955.0
1538	1980.0
1539	2002.0
1540	1995.0
1541	1986.0
1542	1976.0
1543	1953.0
1544	1972.0
1545	1999.0
1546	2026.0
1547	2003.0
1548	1981.0
1549	1964.0
1550	1975.0
1551	1958.0
1552	1932.0
1553	1927.0
1554	1963.0
1555	1970.0
1556	1942.0
1557	1943.0
1558	1974.0
1559	1980.0
1560	1964.0
1561	1956.0
1562	1934.0
1563	1932.0
1564	1947.0
1565	1957.0
1566	1933.0
1567	1937.0
1568	1963.0
1569	1938.0
1570	1956.0
1571	1978.0
1572	1974.0
1573	1947.0
1574	1964.0
1575	1944.0
1576	1925.0
1577	2036.0
1578	2069.0
1579	2004.0
1580	1956.0
1581	1977.0
1582	1974.0
1583	1972.0
1584	1970.0
1585	1969.0
1586	1937.0
1587	1944.0
1588	1963.0
1589	1965.0
1590	1961.0
1591	1954.0
1592	2059.0
1593	2109.0
1594	2125.0
1595	2071.0
1596	2027.0
1597	2000.0
1598	1982.0
1599	1977.0
1600	1965.0
1601	1941.0
1602	1951.0
1603	1964.0
1604	1965.0
1605	1994.0
1606	1971.0
1607	1952.0
1608	1938.0
1609	1973.0
1610	2013.0
1611	2024.0
1612	2001.0
1613	1984.0
1614	1953.0
1615	1946.0
1616	2007.0
1617	2034.0
1618	1998.0
1619	1975.0
1620	1966.0
1621	1939.0
1622	1937.0
1623	1943.0
1624	1977.0
1625	1981.0
1626	1964.0
1627	1938.0
1628	1928.0
1629	1962.0
1630	1925.0
1631	1936.0
1632	1959.0
1633	1965.0
1634	1946.0
1635	1979.0
1636	1970.0
1637	1965.0
1638	1978.0
1639	1992.0
1640	1953.0
1641	1951.0
1642	1961.0
1643	1975.0
1644	1983.0
1645	1953.0
1646	1948.0
1647	1941.0
1648	1951.0
1649	1912.0
1650	1909.0
1651	1913.0
1652	1943.0
1653	1940.0
1654	1900.0
1655	1900.0
1656	1907.0
1657	1941.0
1658	1931.0
1659	1937.0
1660	1929.0
1661	1937.0
1662	1933.0
1663	1929.0
1664	1943.0
1665	1940.0
1666	1939.0
1667	1952.0
1668	1978.0
1669	1975.0
1670	1970.0
1671	1985.0
1672	2003.0
1673	1957.0
1674	1954.0
1675	1997.0
1676	2005.0
1677	1979.0
1678	1962.0
1679	1969.0
1680	1966.0
1681	1968.0
1682	1925.0
1683	1914.0
1684	1934.0
1685	1960.0
1686	1936.0
1687	1947.0
1688	1941.0
1689	1937.0
1690	1942.0
1691	1944.0
1692	2041.0
1693	2065.0
1694	2017.0
1695	1990.0
1696	1963.0
1697	1943.0
1698	1972.0
1699	1963.0
1700	1967.0
1701	1968.0
1702	1982.0
1703	1963.0
1704	1983.0
1705	2070.0
1706	2065.0
1707	2025.0
1708	1994.0
1709	2001.0
1710	1996.0
1711	1987.0
1712	1965.0
1713	1958.0
1714	1956.0
1715	1980.0
1716	1976.0
1717	2060.0
1718	2087.0
1719	2030.0
1720	2028.0
1721	2002.0
1722	1980.0
1723	2059.0
1724	2088.0
1725	2028.0
1726	2017.0
1727	2014.0
1728	2006.0
1729	1986.0
1730	1948.0
1731	2049.0
1732	2067.0
1733	2047.0
1734	2029.0
1735	1999.0
1736	1999.0
1737	2002.0
1738	1981.0
1739	1966.0
1740	1939.0
1741	1970.0
1742	1973.0
1743	1935.0
1744	1947.0
1745	1958.0
1746	2000.0
1747	1978.0
1748	1923.0
1749	1876.0
1750	1912.0
1751	1897.0
1752	2025.0
1753	2030.0
1754	1979.0
1755	2019.0
1756	1997.0
1757	1966.0
1758	1940.0
1759	1972.0
1760	1995.0
1761	1985.0
1762	1956.0
1763	1920.0
1764	1907.0
1765	1946.0
1766	1949.0
1767	2019.0
1768	2033.0
1769	1989.0
1770	1999.0
1771	1996.0
1772	1990.0
1773	1964.0
1774	1951.0
1775	1937.0
1776	1945.0
1777	1940.0
1778	1990.0
1779	2004.0
1780	2018.0
1781	1999.0
1782	1959.0
1783	1928.0
1784	1927.0
1785	1939.0
1786	1911.0
1787	1919.0
1788	1920.0
1789	1929.0
1790	1932.0
1791	1918.0
1792	1944.0
1793	1968.0
1794	1958.0
1795	1928.0
1796	1947.0
1797	1949.0
1798	1956.0
1799	1958.0
1800	1942.0
1801	1930.0
1802	1934.0
1803	1917.0
1804	1907.0
1805	1914.0
1806	1915.0
1807	1928.0
1808	1932.0
1809	1950.0
1810	1954.0
1811	1970.0
1812	1958.0
1813	1979.0
1814	1955.0
1815	1927.0
1816	1911.0
1817	1934.0
1818	1950.0
1819	1977.0
1820	2005.0
1821	1962.0
1822	1941.0
1823	1931.0
1824	1927.0
1825	1925.0
1826	1947.0
1827	1980.0
1828	1999.0
1829	1977.0
1830	1958.0
1831	1951.0
1832	1957.0
1833	1973.0
1834	1977.0
1835	1986.0
1836	1953.0
1837	1962.0
1838	1951.0
1839	1935.0
1840	1924.0
1841	1948.0
1842	1960.0
1843	1934.0
1844	2003.0
1845	2034.0
1846	2017.0
1847	1990.0
1848	1978.0
1849	1980.0
1850	1968.0
1851	1949.0
1852	1933.0
1853	1928.0
1854	1972.0
1855	2011.0
1856	1972.0
1857	1967.0
1858	1969.0
1859	1990.0
1860	2006.0
1861	1999.0
1862	1957.0
1863	1926.0
1864	1957.0
1865	1993.0
1866	1962.0
1867	1971.0
1868	1975.0
1869	2061.0
1870	2105.0
1871	2039.0
1872	1999.0
1873	1980.0
1874	1989.0
1875	1972.0
1876	1970.0
1877	1963.0
1878	1982.0
1879	1975.0
1880	1986.0
1881	2000.0
1882	1953.0
1883	1973.0
1884	1974.0
1885	1944.0
1886	1916.0
1887	1927.0
1888	1923.0
1889	1923.0
1890	1992.0
1891	2024.0
1892	1991.0
1893	1984.0
1894	1961.0
1895	1958.0
1896	1955.0
1897	1975.0
1898	1994.0
1899	1959.0
1900	2423.0
1901	2545.0
1902	2290.0
1903	2162.0
1904	2069.0
1905	2005.0
1906	2020.0
1907	2070.0
1908	2047.0
1909	2042.0
1910	2015.0
1911	1991.0
1912	2057.0
1913	2071.0
1914	2000.0
1915	1967.0
1916	1970.0
1917	1951.0
1918	1930.0
1919	1937.0
1920	1953.0
1921	1927.0
1922	1920.0
1923	1921.0
1924	1940.0
1925	1945.0
1926	1959.0
1927	1944.0
1928	1922.0
1929	1938.0
1930	1964.0
1931	1989.0
1932	1981.0
1933	2001.0
1934	1982.0
1935	1981.0
1936	2037.0
1937	2050.0
1938	1981.0
1939	1944.0
1940	1921.0
1941	1925.0
1942	1949.0
1943	1947.0
1944	1954.0
1945	1962.0
1946	2015.0
1947	2015.0
1948	1996.0
1949	1971.0
1950	1957.0
1951	1940.0
1952	1983.0
1953	2003.0
1954	2002.0
1955	2020.0
1956	2027.0
1957	2012.0
1958	1991.0
1959	1975.0
1960	1957.0
1961	1964.0
1962	1963.0
1963	1976.0
1964	1960.0
1965	1965.0
1966	1945.0
1967	1955.0
1968	1944.0
1969	1905.0
1970	1923.0
1971	1937.0
1972	1961.0
1973	1946.0
1974	1949.0
1975	1957.0
1976	1993.0
1977	1995.0
1978	1978.0
1979	1931.0
1980	1896.0
1981	1915.0
1982	1915.0
1983	1946.0
1984	1993.0
1985	2004.0
1986	1981.0
1987	1956.0
1988	1951.0
1989	1970.0
1990	1970.0
1991	1979.0
1992	1979.0
1993	2023.0
1994	2038.0
1995	1974.0
1996	1979.0
1997	1966.0
1998	1935.0
1999	1934.0
2000	1961.0
2001	1932.0
2002	2002.0
2003	2021.0
2004	2003.0
2005	1956.0
2006	1949.0
2007	1946.0
2008	1943.0
2009	1953.0
2010	1947.0
2011	1942.0
2012	1923.0
2013	1927.0
2014	1925.0
2015	1955.0
2016	1945.0
2017	1953.0
2018	1954.0
2019	1956.0
2020	1948.0
2021	1926.0
2022	1958.0
2023	1949.0
2024	1962.0
2025	1965.0
2026	2228.0
2027	2449.0
2028	2295.0
2029	2206.0
2030	2156.0
2031	2057.0
2032	2004.0
2033	2133.0
2034	2175.0
2035	2089.0
2036	2029.0
2037	2002.0
2038	2074.0
2039	2093.0
2040	2019.0
2041	2010.0
2042	2005.0
2043	2020.0
2044	1989.0
2045	1959.0
2046	1968.0
2047	1949.0
