================================================================================
RAMAN SPECTROMETER DEBUG LOG
Timestamp: 2026-01-17T15:08:57.914482
================================================================================

--- CONFIGURATION ---
Port: /dev/ttyUSB0
Baudrate: 9600
Integration time: 2000 ms
Timeout: 10.0 s
Expected data points: 2048
Min data points: 100

--- RAW DATA INFO ---
Total bytes received: 10747
Null bytes count: 0

--- RAW BYTES (first 500, hex) ---
61 0d 0a 41 43 4b 0d 0a 0d 0a 49 32 30 30 30 0d 
0a 41 43 4b 0d 0a 0d 0a 53 0d 0a 41 43 4b 0d 0a 
30 31 39 38 32 0d 0a 30 31 39 33 39 0d 0a 30 31 
39 34 31 0d 0a 30 31 39 36 34 0d 0a 30 31 39 37 
31 0d 0a 30 31 39 35 39 0d 0a 30 31 39 37 30 0d 
0a 30 31 39 36 35 0d 0a 30 31 39 38 30 0d 0a 30 
31 39 37 37 0d 0a 30 31 39 37 34 0d 0a 30 31 39 
39 33 0d 0a 30 32 30 30 33 0d 0a 30 31 39 37 37 
0d 0a 30 31 39 38 36 0d 0a 30 32 32 31 32 0d 0a 
30 32 32 36 36 0d 0a 30 32 31 33 32 0d 0a 30 32 
30 34 38 0d 0a 30 32 30 34 31 0d 0a 30 32 30 36 
33 0d 0a 30 32 30 37 34 0d 0a 30 32 31 31 37 0d 
0a 30 32 31 31 36 0d 0a 30 32 30 38 34 0d 0a 30 
32 30 38 34 0d 0a 30 32 30 39 34 0d 0a 30 32 30 
39 31 0d 0a 30 32 30 37 39 0d 0a 30 32 30 38 35 
0d 0a 30 32 32 38 33 0d 0a 30 32 33 37 30 0d 0a 
30 32 32 38 34 0d 0a 30 32 31 34 34 0d 0a 30 32 
31 31 31 0d 0a 30 32 30 36 35 0d 0a 30 32 30 35 
34 0d 0a 30 32 30 33 34 0d 0a 30 32 30 34 34 0d 
0a 30 32 30 38 37 0d 0a 30 32 31 30 38 0d 0a 30 
32 31 30 31 0d 0a 30 32 30 37 31 0d 0a 30 32 30 
39 39 0d 0a 30 32 34 36 33 0d 0a 30 32 35 33 33 
0d 0a 30 32 33 30 32 0d 0a 30 32 31 37 30 0d 0a 
30 32 31 30 39 0d 0a 30 32 30 39 34 0d 0a 30 32 
30 33 36 0d 0a 30 32 30 30 33 0d 0a 30 32 30 30 
37 0d 0a 30 32 30 32 36 0d 0a 30 32 30 39 30 0d 
0a 30 32 30 38 31 0d 0a 30 32 30 35 36 0d 0a 30 
32 32 33 39 0d 0a 30 32 33 30 31 0d 0a 30 32 31 
38 37 0d 0a 30 32 31 34 36 0d 0a 30 32 30 37 39 
0d 0a 30 32 30 34 37 0d 0a 30 32 30 36 36 0d 0a 
30 32 30 37 32 0d 0a 30 32 30 34 35 0d 0a 30 32 
31 38 32 0d

--- RAW DATA AS STRING (first 1000 chars) ---
a
ACK

I2000
ACK

S
ACK
01982
01939
01941
01964
01971
01959
01970
01965
01980
01977
01974
01993
02003
01977
01986
02212
02266
02132
02048
02041
02063
02074
02117
02116
02084
02084
02094
02091
02079
02085
02283
02370
02284
02144
02111
02065
02054
02034
02044
02087
02108
02101
02071
02099
02463
02533
02302
02170
02109
02094
02036
02003
02007
02026
02090
02081
02056
02239
02301
02187
02146
02079
02047
02066
02072
02045
02182
02240
02138
02145
02156
02133
02105
02081
02059
02056
02038
02036
02017
02001
02029
02053
02039
01995
04190
04733
03461
02740
02374
02181
02069
02123
02342
02355
02190
02144
02105
02088
02057
02059
02139
02125
02142
02131
02082
02045
02028
02015
02036
02048
02034
02010
02037
02051
02055
02066
02041
02010
02050
02112
02080
02037
02058
02112
02072
02057
02084
02052
02054
02038
02014
02000
02039
02063
02090
02079
02039
02030
02

--- PARSED VALUES ---
Total parsed values: 1531
Min value: 1939.0
Max value: 4733.0
Mean value: 2218.473
First 20 values: [1982.0, 1939.0, 1941.0, 1964.0, 1971.0, 1959.0, 1970.0, 1965.0, 1980.0, 1977.0, 1974.0, 1993.0, 2003.0, 1977.0, 1986.0, 2212.0, 2266.0, 2132.0, 2048.0, 2041.0]
Last 20 values: [2170.0, 2263.0, 2245.0, 2108.0, 2055.0, 2008.0, 2015.0, 2031.0, 2008.0, 1998.0, 2030.0, 2056.0, 2052.0, 2053.0, 2018.0, 2016.0, 2010.0, 2016.0, 2000.0, 1989.0]

--- FULL SPECTRUM DATA (one value per line) ---
0	1982.0
1	1939.0
2	1941.0
3	1964.0
4	1971.0
5	1959.0
6	1970.0
7	1965.0
8	1980.0
9	1977.0
10	1974.0
11	1993.0
12	2003.0
13	1977.0
14	1986.0
15	2212.0
16	2266.0
17	2132.0
18	2048.0
19	2041.0
20	2063.0
21	2074.0
22	2117.0
23	2116.0
24	2084.0
25	2084.0
26	2094.0
27	2091.0
28	2079.0
29	2085.0
30	2283.0
31	2370.0
32	2284.0
33	2144.0
34	2111.0
35	2065.0
36	2054.0
37	2034.0
38	2044.0
39	2087.0
40	2108.0
41	2101.0
42	2071.0
43	2099.0
44	2463.0
45	2533.0
46	2302.0
47	2170.0
48	2109.0
49	2094.0
50	2036.0
51	2003.0
52	2007.0
53	2026.0
54	2090.0
55	2081.0
56	2056.0
57	2239.0
58	2301.0
59	2187.0
60	2146.0
61	2079.0
62	2047.0
63	2066.0
64	2072.0
65	2045.0
66	2182.0
67	2240.0
68	2138.0
69	2145.0
70	2156.0
71	2133.0
72	2105.0
73	2081.0
74	2059.0
75	2056.0
76	2038.0
77	2036.0
78	2017.0
79	2001.0
80	2029.0
81	2053.0
82	2039.0
83	1995.0
84	4190.0
85	4733.0
86	3461.0
87	2740.0
88	2374.0
89	2181.0
90	2069.0
91	2123.0
92	2342.0
93	2355.0
94	2190.0
95	2144.0
96	2105.0
97	2088.0
98	2057.0
99	2059.0
100	2139.0
101	2125.0
102	2142.0
103	2131.0
104	2082.0
105	2045.0
106	2028.0
107	2015.0
108	2036.0
109	2048.0
110	2034.0
111	2010.0
112	2037.0
113	2051.0
114	2055.0
115	2066.0
116	2041.0
117	2010.0
118	2050.0
119	2112.0
120	2080.0
121	2037.0
122	2058.0
123	2112.0
124	2072.0
125	2057.0
126	2084.0
127	2052.0
128	2054.0
129	2038.0
130	2014.0
131	2000.0
132	2039.0
133	2063.0
134	2090.0
135	2079.0
136	2039.0
137	2030.0
138	2030.0
139	2044.0
140	2017.0
141	2703.0
142	2890.0
143	2457.0
144	2211.0
145	2130.0
146	2182.0
147	2195.0
148	2233.0
149	2220.0
150	2145.0
151	2092.0
152	2076.0
153	2046.0
154	2051.0
155	2072.0
156	2075.0
157	2052.0
158	2081.0
159	2076.0
160	2069.0
161	2070.0
162	2229.0
163	2319.0
164	2204.0
165	2118.0
166	2027.0
167	2063.0
168	2071.0
169	2056.0
170	2048.0
171	2095.0
172	2082.0
173	2041.0
174	2017.0
175	2034.0
176	2029.0
177	1999.0
178	2012.0
179	2048.0
180	2055.0
181	2015.0
182	2003.0
183	2005.0
184	2017.0
185	2049.0
186	2051.0
187	2035.0
188	2003.0
189	2201.0
190	2259.0
191	2160.0
192	2090.0
193	2050.0
194	2101.0
195	2177.0
196	2166.0
197	2132.0
198	2101.0
199	2080.0
200	2093.0
201	2048.0
202	2054.0
203	2061.0
204	2061.0
205	2038.0
206	2032.0
207	2010.0
208	2028.0
209	2050.0
210	2050.0
211	2096.0
212	2085.0
213	2226.0
214	2650.0
215	2637.0
216	2363.0
217	2228.0
218	2127.0
219	2133.0
220	2130.0
221	2107.0
222	2071.0
223	2023.0
224	2034.0
225	2024.0
226	1991.0
227	1967.0
228	1984.0
229	1997.0
230	2032.0
231	2100.0
232	2102.0
233	2461.0
234	2542.0
235	2289.0
236	2132.0
237	2091.0
238	2194.0
239	2184.0
240	2085.0
241	2738.0
242	2892.0
243	2703.0
244	2547.0
245	2310.0
246	2230.0
247	2483.0
248	2512.0
249	2250.0
250	2159.0
251	2121.0
252	2138.0
253	2145.0
254	2099.0
255	2083.0
256	2071.0
257	2060.0
258	2014.0
259	2016.0
260	2015.0
261	2051.0
262	2032.0
263	2065.0
264	2070.0
265	2514.0
266	2607.0
267	2330.0
268	2196.0
269	2130.0
270	2098.0
271	2054.0
272	2066.0
273	2055.0
274	2068.0
275	2054.0
276	2046.0
277	1997.0
278	1997.0
279	1979.0
280	1954.0
281	1991.0
282	2048.0
283	2038.0
284	2026.0
285	2042.0
286	2048.0
287	2064.0
288	2048.0
289	2039.0
290	2020.0
291	2002.0
292	1996.0
293	2000.0
294	2036.0
295	2027.0
296	1997.0
297	1991.0
298	2032.0
299	2087.0
300	2086.0
301	2066.0
302	2070.0
303	2082.0
304	2105.0
305	2109.0
306	2077.0
307	2055.0
308	2046.0
309	3204.0
310	3575.0
311	2936.0
312	2506.0
313	2289.0
314	2269.0
315	2228.0
316	2108.0
317	2062.0
318	2048.0
319	2051.0
320	2077.0
321	2034.0
322	2026.0
323	1981.0
324	1976.0
325	2008.0
326	2054.0
327	2041.0
328	2029.0
329	2322.0
330	2418.0
331	2413.0
332	2336.0
333	2215.0
334	2176.0
335	2358.0
336	2351.0
337	2207.0
338	2120.0
339	2098.0
340	2074.0
341	2082.0
342	2065.0
343	2069.0
344	2080.0
345	2063.0
346	2095.0
347	2105.0
348	2096.0
349	2060.0
350	2062.0
351	2057.0
352	2028.0
353	2037.0
354	2037.0
355	2071.0
356	2103.0
357	2133.0
358	2108.0
359	2102.0
360	2080.0
361	2108.0
362	2097.0
363	2047.0
364	2060.0
365	2079.0
366	2048.0
367	2000.0
368	2017.0
369	2015.0
370	2034.0
371	2053.0
372	2059.0
373	2044.0
374	2024.0
375	2002.0
376	2061.0
377	2139.0
378	2134.0
379	2095.0
380	2118.0
381	2148.0
382	2098.0
383	2066.0
384	2035.0
385	2058.0
386	2082.0
387	2114.0
388	2119.0
389	2087.0
390	2072.0
391	2301.0
392	2367.0
393	2192.0
394	2114.0
395	2052.0
396	2092.0
397	2061.0
398	2024.0
399	2023.0
400	2014.0
401	2004.0
402	1999.0
403	2008.0
404	2221.0
405	2252.0
406	2125.0
407	2113.0
408	2072.0
409	2120.0
410	2111.0
411	2081.0
412	2073.0
413	2055.0
414	2039.0
415	1997.0
416	2036.0
417	2024.0
418	2025.0
419	2139.0
420	2194.0
421	2191.0
422	2328.0
423	2284.0
424	2134.0
425	2085.0
426	2057.0
427	2050.0
428	2086.0
429	2100.0
430	2093.0
431	2085.0
432	2072.0
433	2081.0
434	2043.0
435	2036.0
436	2159.0
437	2180.0
438	2113.0
439	2112.0
440	2482.0
441	2515.0
442	2293.0
443	2157.0
444	2092.0
445	2325.0
446	2403.0
447	2256.0
448	2222.0
449	2184.0
450	2072.0
451	2052.0
452	2038.0
453	2035.0
454	2018.0
455	2085.0
456	2099.0
457	2051.0
458	2028.0
459	2125.0
460	2159.0
461	2225.0
462	2228.0
463	2132.0
464	2085.0
465	2009.0
466	2008.0
467	2006.0
468	2030.0
469	2002.0
470	1992.0
471	2009.0
472	2054.0
473	2077.0
474	2234.0
475	2264.0
476	2135.0
477	2097.0
478	2176.0
479	2308.0
480	2282.0
481	2186.0
482	2106.0
483	2063.0
484	2030.0
485	2021.0
486	2048.0
487	2056.0
488	2030.0
489	2001.0
490	2009.0
491	2024.0
492	2111.0
493	2164.0
494	2129.0
495	2060.0
496	2068.0
497	2076.0
498	2084.0
499	2070.0
500	2056.0
501	2058.0
502	2074.0
503	2093.0
504	2117.0
505	2090.0
506	2022.0
507	1983.0
508	1969.0
509	1969.0
510	2007.0
511	1993.0
512	2014.0
513	1983.0
514	1997.0
515	2035.0
516	2049.0
517	2137.0
518	2371.0
519	2405.0
520	2263.0
521	2162.0
522	2089.0
523	2047.0
524	2002.0
525	2025.0
526	2041.0
527	2032.0
528	2014.0
529	2053.0
530	2040.0
531	2036.0
532	2044.0
533	2022.0
534	2022.0
535	2013.0
536	2029.0
537	1996.0
538	1970.0
539	1975.0
540	2036.0
541	2057.0
542	2041.0
543	2037.0
544	2041.0
545	2035.0
546	2028.0
547	2050.0
548	2038.0
549	2026.0
550	2075.0
551	2117.0
552	2084.0
553	2049.0
554	2024.0
555	1999.0
556	1985.0
557	2016.0
558	2019.0
559	2021.0
560	2040.0
561	2046.0
562	2061.0
563	2032.0
564	2083.0
565	2068.0
566	2079.0
567	2087.0
568	2056.0
569	2070.0
570	2073.0
571	2047.0
572	1994.0
573	2064.0
574	2063.0
575	2055.0
576	2019.0
577	2002.0
578	2006.0
579	2025.0
580	2021.0
581	1986.0
582	1985.0
583	1979.0
584	1983.0
585	2013.0
586	2057.0
587	2068.0
588	2072.0
589	2049.0
590	2039.0
591	2086.0
592	2120.0
593	2095.0
594	2029.0
595	2008.0
596	2214.0
597	2358.0
598	2231.0
599	2119.0
600	2068.0
601	2054.0
602	2032.0
603	2048.0
604	2052.0
605	2155.0
606	2172.0
607	2047.0
608	2022.0
609	2349.0
610	2467.0
611	2251.0
612	2136.0
613	2068.0
614	2027.0
615	2004.0
616	2014.0
617	2035.0
618	2030.0
619	2034.0
620	2018.0
621	2021.0
622	2007.0
623	2018.0
624	2082.0
625	2130.0
626	2068.0
627	2027.0
628	2020.0
629	2045.0
630	2057.0
631	2028.0
632	2052.0
633	2026.0
634	2028.0
635	2029.0
636	2040.0
637	2010.0
638	2327.0
639	2399.0
640	2206.0
641	2120.0
642	2056.0
643	2265.0
644	2330.0
645	2203.0
646	2087.0
647	2036.0
648	2055.0
649	2071.0
650	2036.0
651	2026.0
652	1996.0
653	1993.0
654	1986.0
655	2013.0
656	2045.0
657	2035.0
658	2077.0
659	2108.0
660	2113.0
661	2075.0
662	2214.0
663	2255.0
664	2170.0
665	2139.0
666	2138.0
667	2170.0
668	2130.0
669	2066.0
670	2000.0
671	1982.0
672	1994.0
673	2010.0
674	2031.0
675	2086.0
676	2090.0
677	2037.0
678	2026.0
679	2019.0
680	2137.0
681	2184.0
682	2177.0
683	2120.0
684	2054.0
685	2027.0
686	2036.0
687	2036.0
688	2351.0
689	2412.0
690	2213.0
691	2120.0
692	2088.0
693	2200.0
694	2175.0
695	2082.0
696	2022.0
697	1998.0
698	1995.0
699	2080.0
700	2090.0
701	2078.0
702	2077.0
703	2060.0
704	2109.0
705	2121.0
706	2090.0
707	2034.0
708	2058.0
709	2039.0
710	2180.0
711	2227.0
712	2105.0
713	2077.0
714	2061.0
715	2026.0
716	1995.0
717	2183.0
718	2239.0
719	2216.0
720	2161.0
721	2129.0
722	2075.0
723	2066.0
724	2055.0
725	2248.0
726	2298.0
727	2168.0
728	2102.0
729	2023.0
730	2036.0
731	2030.0
732	1993.0
733	2003.0
734	2242.0
735	2303.0
736	2569.0
737	2625.0
738	2444.0
739	2300.0
740	2150.0
741	2083.0
742	2053.0
743	2029.0
744	2012.0
745	2030.0
746	2018.0
747	2283.0
748	2334.0
749	2195.0
750	2125.0
751	2074.0
752	2147.0
753	2174.0
754	2094.0
755	2039.0
756	2035.0
757	2276.0
758	2327.0
759	2152.0
760	2073.0
761	2037.0
762	2048.0
763	2074.0
764	2043.0
765	2024.0
766	1986.0
767	1982.0
768	1961.0
769	1977.0
770	2016.0
771	2032.0
772	2038.0
773	2053.0
774	2056.0
775	2044.0
776	2037.0
777	2025.0
778	2039.0
779	2022.0
780	2061.0
781	2082.0
782	2059.0
783	2045.0
784	2088.0
785	2086.0
786	2022.0
787	2043.0
788	2064.0
789	2051.0
790	2041.0
791	2047.0
792	2019.0
793	2010.0
794	1996.0
795	1996.0
796	2003.0
797	1989.0
798	2008.0
799	2100.0
800	2133.0
801	2067.0
802	2035.0
803	1990.0
804	2009.0
805	2031.0
806	2079.0
807	2100.0
808	2051.0
809	2004.0
810	2005.0
811	2044.0
812	2226.0
813	2281.0
814	2154.0
815	2076.0
816	2064.0
817	2102.0
818	2078.0
819	2107.0
820	2117.0
821	2090.0
822	2087.0
823	2049.0
824	2050.0
825	2027.0
826	2005.0
827	2074.0
828	2108.0
829	2048.0
830	2045.0
831	2049.0
832	2054.0
833	2114.0
834	2115.0
835	2071.0
836	2017.0
837	2000.0
838	1987.0
839	1989.0
840	1983.0
841	2033.0
842	2035.0
843	2013.0
844	1999.0
845	2003.0
846	2007.0
847	1985.0
848	1982.0
849	2006.0
850	2075.0
851	2084.0
852	2311.0
853	2322.0
854	2161.0
855	3156.0
856	3375.0
857	2749.0
858	2433.0
859	2307.0
860	2215.0
861	2133.0
862	2167.0
863	2188.0
864	2140.0
865	2117.0
866	2079.0
867	2076.0
868	2054.0
869	2007.0
870	2010.0
871	2090.0
872	2118.0
873	2054.0
874	2030.0
875	2049.0
876	2073.0
877	2053.0
878	2056.0
879	2071.0
880	2057.0
881	2031.0
882	2014.0
883	2004.0
884	1990.0
885	2025.0
886	2027.0
887	2017.0
888	1996.0
889	1967.0
890	1957.0
891	1980.0
892	1995.0
893	2038.0
894	2033.0
895	1984.0
896	2004.0
897	2010.0
898	1999.0
899	2030.0
900	2083.0
901	2066.0
902	2059.0
903	2203.0
904	2203.0
905	2102.0
906	2112.0
907	2095.0
908	2262.0
909	2309.0
910	2163.0
911	2096.0
912	2067.0
913	2035.0
914	2051.0
915	2091.0
916	2092.0
917	2845.0
918	3017.0
919	2578.0
920	2308.0
921	2147.0
922	2088.0
923	2052.0
924	2027.0
925	2005.0
926	2017.0
927	1994.0
928	2009.0
929	2011.0
930	2064.0
931	2102.0
932	2072.0
933	2040.0
934	2070.0
935	2119.0
936	2106.0
937	2100.0
938	2173.0
939	2199.0
940	2126.0
941	2095.0
942	2073.0
943	2045.0
944	2034.0
945	2026.0
946	2020.0
947	2030.0
948	2048.0
949	2029.0
950	2020.0
951	2019.0
952	2032.0
953	2032.0
954	2046.0
955	2073.0
956	2051.0
957	2050.0
958	2026.0
959	2031.0
960	2000.0
961	2001.0
962	2145.0
963	2230.0
964	2158.0
965	2088.0
966	2095.0
967	2082.0
968	2048.0
969	2021.0
970	2037.0
971	2067.0
972	2052.0
973	2156.0
974	2202.0
975	2086.0
976	2057.0
977	2060.0
978	2065.0
979	2060.0
980	2018.0
981	2000.0
982	1984.0
983	2809.0
984	3019.0
985	2549.0
986	2267.0
987	2205.0
988	2165.0
989	2101.0
990	2095.0
991	2077.0
992	2068.0
993	2057.0
994	2054.0
995	2263.0
996	2326.0
997	2215.0
998	2198.0
999	2137.0
1000	2112.0
1001	2113.0
1002	2112.0
1003	2099.0
1004	2071.0
1005	2103.0
1006	2152.0
1007	2173.0
1008	2153.0
1009	2179.0
1010	2207.0
1011	2229.0
1012	2241.0
1013	2254.0
1014	2250.0
1015	2249.0
1016	2246.0
1017	2241.0
1018	2282.0
1019	2280.0
1020	2253.0
1021	2264.0
1022	2314.0
1023	2307.0
1024	2306.0
1025	2322.0
1026	2312.0
1027	2340.0
1028	2383.0
1029	2467.0
1030	2458.0
1031	2409.0
1032	2371.0
1033	2397.0
1034	2427.0
1035	2449.0
1036	2422.0
1037	2439.0
1038	2450.0
1039	2449.0
1040	2483.0
1041	2776.0
1042	2862.0
1043	2676.0
1044	2588.0
1045	2505.0
1046	2453.0
1047	2970.0
1048	3112.0
1049	2808.0
1050	2668.0
1051	2624.0
1052	2586.0
1053	2562.0
1054	2500.0
1055	2509.0
1056	2538.0
1057	2530.0
1058	2530.0
1059	2580.0
1060	2564.0
1061	2541.0
1062	2683.0
1063	2696.0
1064	2627.0
1065	2581.0
1066	2579.0
1067	2596.0
1068	2582.0
1069	2663.0
1070	2904.0
1071	2925.0
1072	2799.0
1073	2691.0
1074	2630.0
1075	2600.0
1076	2586.0
1077	2562.0
1078	2514.0
1079	2578.0
1080	2609.0
1081	2592.0
1082	2587.0
1083	2583.0
1084	2569.0
1085	2545.0
1086	2564.0
1087	2550.0
1088	2692.0
1089	2728.0
1090	2644.0
1091	2601.0
1092	2627.0
1093	2623.0
1094	2787.0
1095	2830.0
1096	2699.0
1097	2601.0
1098	2570.0
1099	2550.0
1100	2542.0
1101	2753.0
1102	2817.0
1103	2748.0
1104	2661.0
1105	2640.0
1106	2685.0
1107	2670.0
1108	2635.0
1109	2638.0
1110	2806.0
1111	2836.0
1112	2732.0
1113	2659.0
1114	2656.0
1115	2661.0
1116	2685.0
1117	2666.0
1118	2640.0
1119	2632.0
1120	2652.0
1121	2646.0
1122	2886.0
1123	2962.0
1124	2789.0
1125	2700.0
1126	2685.0
1127	2685.0
1128	2756.0
1129	2741.0
1130	2666.0
1131	2704.0
1132	2709.0
1133	2694.0
1134	2666.0
1135	2648.0
1136	2687.0
1137	2703.0
1138	2710.0
1139	2751.0
1140	2769.0
1141	3128.0
1142	3214.0
1143	2950.0
1144	2831.0
1145	2758.0
1146	2726.0
1147	2744.0
1148	2756.0
1149	2794.0
1150	2817.0
1151	2809.0
1152	2751.0
1153	2735.0
1154	2724.0
1155	2743.0
1156	2811.0
1157	2815.0
1158	2792.0
1159	2757.0
1160	2750.0
1161	2730.0
1162	2739.0
1163	2748.0
1164	2747.0
1165	2717.0
1166	2736.0
1167	2820.0
1168	2822.0
1169	2747.0
1170	2726.0
1171	2705.0
1172	2685.0
1173	2697.0
1174	2860.0
1175	2918.0
1176	2815.0
1177	2801.0
1178	2810.0
1179	2786.0
1180	2775.0
1181	2924.0
1182	2997.0
1183	2930.0
1184	2839.0
1185	2786.0
1186	2768.0
1187	2775.0
1188	2833.0
1189	2837.0
1190	2961.0
1191	2958.0
1192	2856.0
1193	2820.0
1194	2847.0
1195	2838.0
1196	2828.0
1197	2825.0
1198	2786.0
1199	2789.0
1200	2847.0
1201	2876.0
1202	3061.0
1203	3131.0
1204	3005.0
1205	2892.0
1206	2844.0
1207	2836.0
1208	2990.0
1209	2958.0
1210	2870.0
1211	2875.0
1212	2866.0
1213	2852.0
1214	2853.0
1215	2823.0
1216	2790.0
1217	2750.0
1218	2748.0
1219	2777.0
1220	2783.0
1221	2837.0
1222	2832.0
1223	2792.0
1224	2781.0
1225	2855.0
1226	2858.0
1227	2838.0
1228	2771.0
1229	2777.0
1230	2807.0
1231	2991.0
1232	3076.0
1233	3002.0
1234	2920.0
1235	2828.0
1236	2807.0
1237	2831.0
1238	2836.0
1239	2830.0
1240	2848.0
1241	2806.0
1242	2961.0
1243	3029.0
1244	2957.0
1245	2927.0
1246	2848.0
1247	2817.0
1248	2793.0
1249	2791.0
1250	2809.0
1251	2824.0
1252	2791.0
1253	2792.0
1254	2811.0
1255	2825.0
1256	2832.0
1257	2817.0
1258	2834.0
1259	2802.0
1260	2757.0
1261	2727.0
1262	2783.0
1263	2781.0
1264	2759.0
1265	2705.0
1266	2708.0
1267	2709.0
1268	2683.0
1269	2660.0
1270	2619.0
1271	2597.0
1272	2559.0
1273	2511.0
1274	2456.0
1275	2469.0
1276	2701.0
1277	2701.0
1278	2524.0
1279	2370.0
1280	2274.0
1281	2224.0
1282	2196.0
1283	2133.0
1284	2100.0
1285	2083.0
1286	2085.0
1287	2051.0
1288	2055.0
1289	2054.0
1290	2055.0
1291	2067.0
1292	2054.0
1293	2038.0
1294	2227.0
1295	2258.0
1296	2137.0
1297	2080.0
1298	2009.0
1299	1991.0
1300	2001.0
1301	1983.0
1302	1976.0
1303	2009.0
1304	2024.0
1305	2003.0
1306	2022.0
1307	1993.0
1308	1992.0
1309	1985.0
1310	1975.0
1311	1973.0
1312	1969.0
1313	1989.0
1314	2008.0
1315	2147.0
1316	2169.0
1317	2079.0
1318	2055.0
1319	2077.0
1320	2059.0
1321	2084.0
1322	2077.0
1323	2051.0
1324	2061.0
1325	2048.0
1326	2001.0
1327	1970.0
1328	1982.0
1329	1993.0
1330	2012.0
1331	1995.0
1332	2011.0
1333	2025.0
1334	2024.0
1335	1988.0
1336	1993.0
1337	2006.0
1338	2018.0
1339	2419.0
1340	2539.0
1341	2355.0
1342	2315.0
1343	2338.0
1344	2312.0
1345	2217.0
1346	2221.0
1347	2205.0
1348	2111.0
1349	2071.0
1350	2045.0
1351	2029.0
1352	2020.0
1353	2037.0
1354	2072.0
1355	2082.0
1356	2074.0
1357	2261.0
1358	2327.0
1359	2180.0
1360	2425.0
1361	2449.0
1362	2224.0
1363	2098.0
1364	2199.0
1365	2247.0
1366	2172.0
1367	2287.0
1368	2302.0
1369	2226.0
1370	2146.0
1371	2097.0
1372	2036.0
1373	2019.0
1374	2026.0
1375	2038.0
1376	2084.0
1377	2080.0
1378	2074.0
1379	2092.0
1380	2109.0
1381	2114.0
1382	2110.0
1383	2053.0
1384	2035.0
1385	2025.0
1386	2009.0
1387	1999.0
1388	1991.0
1389	2020.0
1390	1996.0
1391	2004.0
1392	2011.0
1393	2022.0
1394	1992.0
1395	2001.0
1396	2054.0
1397	2072.0
1398	2059.0
1399	2052.0
1400	3139.0
1401	3353.0
1402	2695.0
1403	2359.0
1404	2502.0
1405	2472.0
1406	2251.0
1407	2510.0
1408	2536.0
1409	2281.0
1410	2141.0
1411	2085.0
1412	2052.0
1413	2095.0
1414	2078.0
1415	2046.0
1416	2031.0
1417	2027.0
1418	2009.0
1419	2008.0
1420	2024.0
1421	2060.0
1422	2035.0
1423	2041.0
1424	2050.0
1425	2024.0
1426	2031.0
1427	2035.0
1428	2053.0
1429	2125.0
1430	2142.0
1431	2063.0
1432	2009.0
1433	1988.0
1434	2160.0
1435	2248.0
1436	2260.0
1437	2222.0
1438	2116.0
1439	2414.0
1440	2462.0
1441	2271.0
1442	2143.0
1443	2151.0
1444	2150.0
1445	2142.0
1446	2102.0
1447	2093.0
1448	2098.0
1449	2039.0
1450	2002.0
1451	1998.0
1452	2030.0
1453	2028.0
1454	2066.0
1455	2085.0
1456	2057.0
1457	2019.0
1458	2014.0
1459	2331.0
1460	2443.0
1461	2258.0
1462	2182.0
1463	2181.0
1464	2174.0
1465	2146.0
1466	2092.0
1467	2092.0
1468	2065.0
1469	2060.0
1470	2058.0
1471	2022.0
1472	2025.0
1473	2042.0
1474	2029.0
1475	1982.0
1476	1963.0
1477	1964.0
1478	1988.0
1479	1989.0
1480	2003.0
1481	2076.0
1482	2090.0
1483	2026.0
1484	2027.0
1485	2055.0
1486	2052.0
1487	2052.0
1488	2005.0
1489	2043.0
1490	2083.0
1491	2120.0
1492	2160.0
1493	2156.0
1494	2177.0
1495	2134.0
1496	2076.0
1497	2011.0
1498	1993.0
1499	1982.0
1500	1995.0
1501	1980.0
1502	2173.0
1503	2215.0
1504	2107.0
1505	2078.0
1506	2275.0
1507	2370.0
1508	2584.0
1509	2561.0
1510	2298.0
1511	2170.0
1512	2263.0
1513	2245.0
1514	2108.0
1515	2055.0
1516	2008.0
1517	2015.0
1518	2031.0
1519	2008.0
1520	1998.0
1521	2030.0
1522	2056.0
1523	2052.0
1524	2053.0
1525	2018.0
1526	2016.0
1527	2010.0
1528	2016.0
1529	2000.0
1530	1989.0
