================================================================================
RAMAN SPECTROMETER DEBUG LOG
Timestamp: 2026-01-19T16:06:19.740977
================================================================================

--- CONFIGURATION ---
Port: /dev/ttyUSB0
Baudrate: 9600
Integration time: 2000 ms
Timeout: 10.0 s
Expected data points: 2048
Min data points: 2048

--- RAW DATA INFO ---
Total bytes received: 14371
Null bytes count: 1

--- RAW BYTES (first 500, hex) ---
61 0d 0a 41 43 4b 0d 0a 0d 0a 49 32 30 30 30 0d 
0a 41 43 4b 0d 0a 0d 0a 53 0d 0a 41 43 4b 0d 0a 
30 31 39 30 30 0d 0a 30 31 39 31 38 0d 0a 30 31 
39 32 37 0d 0a 30 31 39 32 31 0d 0a 30 31 39 32 
34 0d 0a 30 31 39 34 30 0d 0a 30 31 39 33 31 0d 
0a 30 31 39 31 36 0d 0a 30 31 39 32 36 0d 0a 30 
31 39 33 33 0d 0a 30 31 39 35 31 0d 0a 30 31 39 
34 31 0d 0a 30 31 39 31 30 0d 0a 30 31 39 32 38 
0d 0a 30 31 39 35 31 0d 0a 30 32 32 31 33 0d 0a 
30 32 32 36 31 0d 0a 30 32 31 33 38 0d 0a 30 32 
30 34 36 0d 0a 30 32 30 32 32 0d 0a 30 32 30 31 
34 0d 0a 30 32 30 32 30 0d 0a 30 32 31 30 32 0d 
0a 30 32 31 30 39 0d 0a 30 32 30 37 34 0d 0a 30 
32 30 31 34 0d 0a 30 32 30 32 31 0d 0a 30 32 30 
32 31 0d 0a 30 32 30 35 32 0d 0a 30 32 30 33 31 
0d 0a 30 32 32 34 39 0d 0a 30 32 33 33 33 0d 0a 
30 32 32 30 37 0d 0a 30 32 31 30 36 0d 0a 30 32 
30 39 31 0d 0a 30 32 30 34 38 0d 0a 30 31 39 38 
39 0d 0a 30 31 39 39 36 0d 0a 30 31 39 38 37 0d 
0a 30 31 39 38 38 0d 0a 30 32 30 31 31 0d 0a 30 
32 30 33 34 0d 0a 30 32 30 31 37 0d 0a 30 32 30 
34 37 0d 0a 30 32 34 30 39 0d 0a 30 32 34 36 36 
0d 0a 30 32 32 32 35 0d 0a 30 32 31 31 33 0d 0a 
30 32 30 37 36 0d 0a 30 32 30 34 37 0d 0a 30 32 
30 30 34 0d 0a 30 31 39 36 36 0d 0a 30 31 39 37 
34 0d 0a 30 31 39 34 33 0d 0a 30 31 39 36 33 0d 
0a 30 31 39 38 33 0d 0a 30 31 39 38 37 0d 0a 30 
32 32 31 30 0d 0a 30 32 32 32 39 0d 0a 30 32 31 
31 32 0d 0a 30 32 30 34 36 0d 0a 30 32 30 33 37 
0d 0a 30 32 30 30 39 0d 0a 30 31 39 38 38 0d 0a 
30 31 39 36 39 0d 0a 30 31 39 35 31 0d 0a 30 32 
31 31 34 0d

--- RAW DATA AS STRING (first 1000 chars) ---
a
ACK

I2000
ACK

S
ACK
01900
01918
01927
01921
01924
01940
01931
01916
01926
01933
01951
01941
01910
01928
01951
02213
02261
02138
02046
02022
02014
02020
02102
02109
02074
02014
02021
02021
02052
02031
02249
02333
02207
02106
02091
02048
01989
01996
01987
01988
02011
02034
02017
02047
02409
02466
02225
02113
02076
02047
02004
01966
01974
01943
01963
01983
01987
02210
02229
02112
02046
02037
02009
01988
01969
01951
02114
02174
02047
02034
02045
02031
02011
01973
01974
01957
01933
01911
01920
01922
01929
01914
01922
01948
04081
04584
03307
02649
02316
02124
02008
02038
02283
02312
02153
02080
02054
02003
01985
01997
02062
02049
02073
02030
01985
01970
01970
01944
01941
01992
02002
01999
02000
01991
01995
02005
01990
01951
01958
02016
01993
01932
01993
02073
02082
02057
02042
02007
02008
02009
01977
01966
01991
02121
02127
02054
01986
01971
01

--- PARSED VALUES ---
Total parsed values: 2048
Min value: 1893.0
Max value: 4584.0
Mean value: 2131.188
Saturated values (>=65535): 0
First 20 values: [1900.0, 1918.0, 1927.0, 1921.0, 1924.0, 1940.0, 1931.0, 1916.0, 1926.0, 1933.0, 1951.0, 1941.0, 1910.0, 1928.0, 1951.0, 2213.0, 2261.0, 2138.0, 2046.0, 2022.0]
Last 20 values: [3020.0, 2760.0, 2573.0, 2251.0, 2107.0, 2489.0, 2568.0, 2269.0, 2145.0, 2060.0, 2271.0, 2376.0, 2235.0, 2153.0, 2087.0, 2101.0, 2058.0, 2092.0, 2077.0, 2039.0]

--- FULL SPECTRUM DATA (one value per line) ---
0	1900.0
1	1918.0
2	1927.0
3	1921.0
4	1924.0
5	1940.0
6	1931.0
7	1916.0
8	1926.0
9	1933.0
10	1951.0
11	1941.0
12	1910.0
13	1928.0
14	1951.0
15	2213.0
16	2261.0
17	2138.0
18	2046.0
19	2022.0
20	2014.0
21	2020.0
22	2102.0
23	2109.0
24	2074.0
25	2014.0
26	2021.0
27	2021.0
28	2052.0
29	2031.0
30	2249.0
31	2333.0
32	2207.0
33	2106.0
34	2091.0
35	2048.0
36	1989.0
37	1996.0
38	1987.0
39	1988.0
40	2011.0
41	2034.0
42	2017.0
43	2047.0
44	2409.0
45	2466.0
46	2225.0
47	2113.0
48	2076.0
49	2047.0
50	2004.0
51	1966.0
52	1974.0
53	1943.0
54	1963.0
55	1983.0
56	1987.0
57	2210.0
58	2229.0
59	2112.0
60	2046.0
61	2037.0
62	2009.0
63	1988.0
64	1969.0
65	1951.0
66	2114.0
67	2174.0
68	2047.0
69	2034.0
70	2045.0
71	2031.0
72	2011.0
73	1973.0
74	1974.0
75	1957.0
76	1933.0
77	1911.0
78	1920.0
79	1922.0
80	1929.0
81	1914.0
82	1922.0
83	1948.0
84	4081.0
85	4584.0
86	3307.0
87	2649.0
88	2316.0
89	2124.0
90	2008.0
91	2038.0
92	2283.0
93	2312.0
94	2153.0
95	2080.0
96	2054.0
97	2003.0
98	1985.0
99	1997.0
100	2062.0
101	2049.0
102	2073.0
103	2030.0
104	1985.0
105	1970.0
106	1970.0
107	1944.0
108	1941.0
109	1992.0
110	2002.0
111	1999.0
112	2000.0
113	1991.0
114	1995.0
115	2005.0
116	1990.0
117	1951.0
118	1958.0
119	2016.0
120	1993.0
121	1932.0
122	1993.0
123	2073.0
124	2082.0
125	2057.0
126	2042.0
127	2007.0
128	2008.0
129	2009.0
130	1977.0
131	1966.0
132	1991.0
133	2121.0
134	2127.0
135	2054.0
136	1986.0
137	1971.0
138	1971.0
139	1993.0
140	1980.0
141	2756.0
142	2906.0
143	2418.0
144	2191.0
145	2074.0
146	2109.0
147	2061.0
148	2168.0
149	2189.0
150	2094.0
151	2013.0
152	2005.0
153	2021.0
154	2014.0
155	2022.0
156	2007.0
157	2006.0
158	2014.0
159	2003.0
160	1992.0
161	2011.0
162	2169.0
163	2198.0
164	2082.0
165	2028.0
166	1986.0
167	2036.0
168	2039.0
169	1981.0
170	1971.0
171	1996.0
172	1991.0
173	1970.0
174	1987.0
175	1988.0
176	1977.0
177	1962.0
178	1971.0
179	2020.0
180	2011.0
181	1968.0
182	1930.0
183	1961.0
184	1938.0
185	1954.0
186	1957.0
187	1965.0
188	1963.0
189	2194.0
190	2243.0
191	2107.0
192	2030.0
193	1971.0
194	1999.0
195	2023.0
196	2049.0
197	2059.0
198	2033.0
199	1996.0
200	2009.0
201	2000.0
202	2031.0
203	2034.0
204	2016.0
205	1990.0
206	1968.0
207	1975.0
208	1972.0
209	1968.0
210	1956.0
211	2029.0
212	2017.0
213	2175.0
214	2616.0
215	2614.0
216	2351.0
217	2193.0
218	2096.0
219	2012.0
220	1974.0
221	1954.0
222	1956.0
223	1944.0
224	1946.0
225	1961.0
226	1962.0
227	1953.0
228	1941.0
229	1937.0
230	1920.0
231	1993.0
232	2017.0
233	2413.0
234	2482.0
235	2240.0
236	2104.0
237	2085.0
238	2165.0
239	2141.0
240	2061.0
241	2740.0
242	2938.0
243	2677.0
244	2483.0
245	2256.0
246	2226.0
247	2594.0
248	2594.0
249	2291.0
250	2160.0
251	2114.0
252	2069.0
253	2074.0
254	2047.0
255	2050.0
256	2019.0
257	2003.0
258	1998.0
259	1993.0
260	2005.0
261	2043.0
262	2012.0
263	2031.0
264	2013.0
265	2408.0
266	2503.0
267	2252.0
268	2146.0
269	2060.0
270	2042.0
271	2013.0
272	1992.0
273	1945.0
274	1938.0
275	1949.0
276	1961.0
277	1988.0
278	1945.0
279	1924.0
280	1916.0
281	1946.0
282	1979.0
283	1995.0
284	1969.0
285	1987.0
286	2027.0
287	2041.0
288	2005.0
289	1964.0
290	1979.0
291	1985.0
292	1970.0
293	1974.0
294	1983.0
295	1932.0
296	1920.0
297	1922.0
298	1947.0
299	1999.0
300	2007.0
301	2022.0
302	2008.0
303	2012.0
304	1982.0
305	1961.0
306	1957.0
307	1979.0
308	1968.0
309	2150.0
310	2332.0
311	2256.0
312	2098.0
313	2000.0
314	2146.0
315	2167.0
316	2071.0
317	2005.0
318	1994.0
319	2000.0
320	2004.0
321	1989.0
322	1969.0
323	1938.0
324	1952.0
325	1983.0
326	1974.0
327	1966.0
328	1957.0
329	2302.0
330	2395.0
331	2404.0
332	2316.0
333	2162.0
334	2092.0
335	2297.0
336	2333.0
337	2183.0
338	2085.0
339	2009.0
340	1991.0
341	2001.0
342	2008.0
343	2003.0
344	2003.0
345	1978.0
346	2013.0
347	2018.0
348	2008.0
349	2007.0
350	2011.0
351	1999.0
352	1977.0
353	1969.0
354	1957.0
355	1976.0
356	2005.0
357	2048.0
358	2052.0
359	2041.0
360	2029.0
361	2059.0
362	2061.0
363	2029.0
364	2025.0
365	1990.0
366	1976.0
367	1974.0
368	1978.0
369	1964.0
370	1977.0
371	2004.0
372	1990.0
373	1969.0
374	1949.0
375	1968.0
376	2028.0
377	2090.0
378	2062.0
379	2032.0
380	2051.0
381	2058.0
382	2001.0
383	1960.0
384	1973.0
385	1992.0
386	1988.0
387	1992.0
388	2030.0
389	2029.0
390	1988.0
391	2190.0
392	2273.0
393	2122.0
394	2033.0
395	1981.0
396	2025.0
397	2034.0
398	1997.0
399	1998.0
400	1968.0
401	1960.0
402	1962.0
403	1961.0
404	2135.0
405	2191.0
406	2082.0
407	2056.0
408	2031.0
409	1988.0
410	2005.0
411	2024.0
412	2063.0
413	2060.0
414	2010.0
415	1950.0
416	1938.0
417	1940.0
418	1948.0
419	2087.0
420	2115.0
421	2133.0
422	2299.0
423	2257.0
424	2114.0
425	2052.0
426	1972.0
427	1965.0
428	1992.0
429	2016.0
430	2027.0
431	2001.0
432	1977.0
433	1967.0
434	1958.0
435	1912.0
436	2054.0
437	2091.0
438	2035.0
439	2035.0
440	2402.0
441	2429.0
442	2198.0
443	2062.0
444	1976.0
445	2226.0
446	2284.0
447	2136.0
448	2100.0
449	2084.0
450	2014.0
451	1989.0
452	1970.0
453	1968.0
454	1959.0
455	2026.0
456	2060.0
457	2012.0
458	2007.0
459	2098.0
460	2112.0
461	2156.0
462	2175.0
463	2109.0
464	2024.0
465	1953.0
466	1977.0
467	1996.0
468	1973.0
469	1939.0
470	1900.0
471	1948.0
472	2007.0
473	2031.0
474	2199.0
475	2240.0
476	2120.0
477	2080.0
478	2207.0
479	2325.0
480	2253.0
481	2125.0
482	2054.0
483	2013.0
484	2004.0
485	2016.0
486	2023.0
487	1994.0
488	1985.0
489	1966.0
490	1974.0
491	1963.0
492	1999.0
493	2068.0
494	2081.0
495	2039.0
496	2034.0
497	2035.0
498	2018.0
499	1998.0
500	1966.0
501	1957.0
502	1997.0
503	2000.0
504	2000.0
505	1996.0
506	1981.0
507	1941.0
508	1938.0
509	1920.0
510	1967.0
511	1964.0
512	1951.0
513	1975.0
514	2003.0
515	1977.0
516	1942.0
517	2058.0
518	2317.0
519	2334.0
520	2184.0
521	2094.0
522	2011.0
523	1967.0
524	1929.0
525	1934.0
526	1937.0
527	1961.0
528	1973.0
529	1974.0
530	1959.0
531	1937.0
532	1954.0
533	1940.0
534	1962.0
535	1967.0
536	1969.0
537	1949.0
538	1962.0
539	1946.0
540	1948.0
541	1987.0
542	1980.0
543	2002.0
544	2002.0
545	1986.0
546	1998.0
547	1976.0
548	1965.0
549	1977.0
550	2037.0
551	2086.0
552	2045.0
553	1991.0
554	1961.0
555	1961.0
556	1977.0
557	1992.0
558	2013.0
559	1971.0
560	1943.0
561	1970.0
562	2017.0
563	2008.0
564	2042.0
565	2049.0
566	2024.0
567	2041.0
568	1976.0
569	1954.0
570	1978.0
571	1978.0
572	1959.0
573	2044.0
574	2045.0
575	2027.0
576	1986.0
577	1961.0
578	1948.0
579	1958.0
580	1966.0
581	1977.0
582	1990.0
583	1945.0
584	1921.0
585	1955.0
586	2027.0
587	2060.0
588	2044.0
589	2012.0
590	1980.0
591	2039.0
592	2052.0
593	2031.0
594	1989.0
595	1966.0
596	2178.0
597	2318.0
598	2194.0
599	2067.0
600	1979.0
601	1943.0
602	1960.0
603	1934.0
604	1954.0
605	2043.0
606	2050.0
607	1973.0
608	1950.0
609	2267.0
610	2358.0
611	2135.0
612	2020.0
613	1983.0
614	1945.0
615	1923.0
616	1899.0
617	1904.0
618	1914.0
619	1929.0
620	1948.0
621	1964.0
622	1953.0
623	1982.0
624	2063.0
625	2112.0
626	2060.0
627	1977.0
628	1980.0
629	1973.0
630	1961.0
631	1913.0
632	1919.0
633	1952.0
634	1955.0
635	1976.0
636	1988.0
637	1964.0
638	3058.0
639	3320.0
640	2644.0
641	2293.0
642	2102.0
643	2260.0
644	2348.0
645	2212.0
646	2082.0
647	2017.0
648	1993.0
649	2010.0
650	2003.0
651	1976.0
652	1980.0
653	1972.0
654	1972.0
655	1990.0
656	2011.0
657	1976.0
658	2016.0
659	2032.0
660	2009.0
661	1967.0
662	2085.0
663	2147.0
664	2061.0
665	2027.0
666	2022.0
667	2057.0
668	2051.0
669	1996.0
670	1955.0
671	1949.0
672	1952.0
673	1958.0
674	1941.0
675	2003.0
676	2008.0
677	1976.0
678	1950.0
679	1914.0
680	2050.0
681	2117.0
682	2082.0
683	2021.0
684	1974.0
685	1938.0
686	1944.0
687	1977.0
688	2283.0
689	2370.0
690	2161.0
691	2050.0
692	2010.0
693	2133.0
694	2124.0
695	2051.0
696	2010.0
697	1994.0
698	1989.0
699	2022.0
700	2016.0
701	2010.0
702	1991.0
703	2030.0
704	2070.0
705	2034.0
706	2019.0
707	2002.0
708	2050.0
709	2051.0
710	2166.0
711	2165.0
712	2047.0
713	2013.0
714	1988.0
715	1958.0
716	1932.0
717	2139.0
718	2200.0
719	2184.0
720	2160.0
721	2103.0
722	2053.0
723	2002.0
724	2023.0
725	2196.0
726	2224.0
727	2093.0
728	2010.0
729	1950.0
730	1969.0
731	1958.0
732	1964.0
733	1965.0
734	2188.0
735	2255.0
736	2508.0
737	2553.0
738	2351.0
739	2215.0
740	2088.0
741	2034.0
742	2006.0
743	1999.0
744	1935.0
745	1905.0
746	1908.0
747	2203.0
748	2296.0
749	2136.0
750	2056.0
751	2012.0
752	2112.0
753	2116.0
754	2061.0
755	2024.0
756	1972.0
757	2208.0
758	2254.0
759	2112.0
760	2026.0
761	1989.0
762	1980.0
763	2027.0
764	2030.0
765	2027.0
766	1975.0
767	1956.0
768	1967.0
769	1990.0
770	1981.0
771	1944.0
772	1934.0
773	1959.0
774	1968.0
775	1944.0
776	1970.0
777	1992.0
778	1995.0
779	1961.0
780	1982.0
781	2027.0
782	2033.0
783	2028.0
784	1988.0
785	1952.0
786	1949.0
787	1999.0
788	2015.0
789	2002.0
790	1997.0
791	1974.0
792	1926.0
793	1919.0
794	1943.0
795	1971.0
796	1971.0
797	1966.0
798	1996.0
799	2102.0
800	2117.0
801	2055.0
802	2028.0
803	1982.0
804	1993.0
805	2001.0
806	2025.0
807	2013.0
808	1955.0
809	1954.0
810	1939.0
811	1967.0
812	2142.0
813	2196.0
814	2069.0
815	1982.0
816	1961.0
817	1977.0
818	1964.0
819	2009.0
820	2093.0
821	2078.0
822	2077.0
823	2017.0
824	2024.0
825	1984.0
826	1943.0
827	2013.0
828	2043.0
829	1972.0
830	1944.0
831	1928.0
832	1936.0
833	2020.0
834	2020.0
835	1978.0
836	1960.0
837	1966.0
838	1947.0
839	1929.0
840	1924.0
841	1954.0
842	1966.0
843	1941.0
844	1959.0
845	1934.0
846	1953.0
847	1954.0
848	1950.0
849	1945.0
850	1967.0
851	1999.0
852	2226.0
853	2257.0
854	2097.0
855	2338.0
856	2378.0
857	2242.0
858	2128.0
859	2109.0
860	2109.0
861	2055.0
862	2101.0
863	2105.0
864	2065.0
865	2052.0
866	2016.0
867	1974.0
868	1937.0
869	1923.0
870	1928.0
871	2016.0
872	2082.0
873	2048.0
874	2030.0
875	2039.0
876	2021.0
877	1979.0
878	1990.0
879	1980.0
880	1939.0
881	1934.0
882	1922.0
883	1961.0
884	1965.0
885	1954.0
886	1945.0
887	1970.0
888	1980.0
889	1976.0
890	1952.0
891	1946.0
892	1966.0
893	1984.0
894	1987.0
895	1971.0
896	1953.0
897	1915.0
898	1914.0
899	1975.0
900	2042.0
901	2000.0
902	1993.0
903	2161.0
904	2179.0
905	2076.0
906	2071.0
907	2090.0
908	2264.0
909	2292.0
910	2119.0
911	2052.0
912	2029.0
913	2004.0
914	2001.0
915	1993.0
916	2004.0
917	2794.0
918	2994.0
919	2514.0
920	2231.0
921	2091.0
922	2037.0
923	1975.0
924	1956.0
925	1940.0
926	1951.0
927	1943.0
928	1960.0
929	1978.0
930	2027.0
931	2043.0
932	1975.0
933	1961.0
934	2031.0
935	2078.0
936	2022.0
937	2014.0
938	2158.0
939	2179.0
940	2088.0
941	2022.0
942	2017.0
943	1997.0
944	1973.0
945	1967.0
946	1966.0
947	1972.0
948	1985.0
949	1973.0
950	1950.0
951	1895.0
952	1903.0
953	1940.0
954	1931.0
955	1971.0
956	1989.0
957	1977.0
958	1966.0
959	1951.0
960	1927.0
961	1959.0
962	2083.0
963	2149.0
964	2079.0
965	1995.0
966	1977.0
967	1970.0
968	1981.0
969	1979.0
970	1973.0
971	1982.0
972	2002.0
973	2026.0
974	2011.0
975	1961.0
976	1960.0
977	2000.0
978	2018.0
979	2031.0
980	1983.0
981	1966.0
982	1954.0
983	2719.0
984	2908.0
985	2471.0
986	2203.0
987	2110.0
988	2046.0
989	2010.0
990	2070.0
991	2074.0
992	2062.0
993	2017.0
994	2033.0
995	2246.0
996	2279.0
997	2161.0
998	2143.0
999	2095.0
1000	2056.0
1001	2038.0
1002	1998.0
1003	2011.0
1004	2042.0
1005	2056.0
1006	2024.0
1007	2052.0
1008	2093.0
1009	2131.0
1010	2136.0
1011	2128.0
1012	2124.0
1013	2149.0
1014	2174.0
1015	2185.0
1016	2180.0
1017	2209.0
1018	2229.0
1019	2203.0
1020	2209.0
1021	2252.0
1022	2277.0
1023	2265.0
1024	2235.0
1025	2205.0
1026	2220.0
1027	2259.0
1028	2318.0
1029	2408.0
1030	2384.0
1031	2337.0
1032	2310.0
1033	2340.0
1034	2340.0
1035	2328.0
1036	2354.0
1037	2386.0
1038	2414.0
1039	2391.0
1040	2413.0
1041	2735.0
1042	2844.0
1043	2636.0
1044	2522.0
1045	2446.0
1046	2402.0
1047	2883.0
1048	2994.0
1049	2717.0
1050	2585.0
1051	2540.0
1052	2545.0
1053	2503.0
1054	2438.0
1055	2457.0
1056	2513.0
1057	2514.0
1058	2468.0
1059	2501.0
1060	2505.0
1061	2479.0
1062	2621.0
1063	2636.0
1064	2580.0
1065	2528.0
1066	2503.0
1067	2516.0
1068	2537.0
1069	2656.0
1070	2867.0
1071	2893.0
1072	2737.0
1073	2618.0
1074	2548.0
1075	2525.0
1076	2501.0
1077	2484.0
1078	2512.0
1079	2584.0
1080	2573.0
1081	2553.0
1082	2538.0
1083	2524.0
1084	2514.0
1085	2516.0
1086	2543.0
1087	2510.0
1088	2642.0
1089	2644.0
1090	2554.0
1091	2516.0
1092	2551.0
1093	2557.0
1094	2700.0
1095	2713.0
1096	2615.0
1097	2563.0
1098	2505.0
1099	2528.0
1100	2517.0
1101	2705.0
1102	2756.0
1103	2650.0
1104	2585.0
1105	2565.0
1106	2572.0
1107	2599.0
1108	2555.0
1109	2571.0
1110	2781.0
1111	2775.0
1112	2645.0
1113	2601.0
1114	2591.0
1115	2581.0
1116	2577.0
1117	2582.0
1118	2603.0
1119	2628.0
1120	2671.0
1121	2665.0
1122	2953.0
1123	2989.0
1124	2767.0
1125	2702.0
1126	2668.0
1127	2680.0
1128	2726.0
1129	2689.0
1130	2617.0
1131	2653.0
1132	2667.0
1133	2631.0
1134	2617.0
1135	2616.0
1136	2671.0
1137	2696.0
1138	2684.0
1139	2749.0
1140	2792.0
1141	3133.0
1142	3190.0
1143	2914.0
1144	2804.0
1145	2735.0
1146	2669.0
1147	2689.0
1148	2703.0
1149	2724.0
1150	2751.0
1151	2753.0
1152	2714.0
1153	2710.0
1154	2688.0
1155	2638.0
1156	2696.0
1157	2746.0
1158	2716.0
1159	2671.0
1160	2667.0
1161	2710.0
1162	2704.0
1163	2695.0
1164	2695.0
1165	2680.0
1166	2711.0
1167	2800.0
1168	2801.0
1169	2741.0
1170	2724.0
1171	2706.0
1172	2694.0
1173	2691.0
1174	2887.0
1175	2954.0
1176	2829.0
1177	2792.0
1178	2784.0
1179	2781.0
1180	2765.0
1181	2932.0
1182	2985.0
1183	2924.0
1184	2859.0
1185	2783.0
1186	2753.0
1187	2774.0
1188	2811.0
1189	2751.0
1190	2852.0
1191	2867.0
1192	2810.0
1193	2795.0
1194	2804.0
1195	2794.0
1196	2741.0
1197	2710.0
1198	2712.0
1199	2704.0
1200	2772.0
1201	2844.0
1202	3001.0
1203	3081.0
1204	2940.0
1205	2840.0
1206	2780.0
1207	2751.0
1208	2906.0
1209	2939.0
1210	2855.0
1211	2792.0
1212	2758.0
1213	2769.0
1214	2793.0
1215	2739.0
1216	2724.0
1217	2721.0
1218	2715.0
1219	2722.0
1220	2703.0
1221	2762.0
1222	2787.0
1223	2765.0
1224	2755.0
1225	2793.0
1226	2777.0
1227	2749.0
1228	2739.0
1229	2718.0
1230	2726.0
1231	2905.0
1232	2987.0
1233	2925.0
1234	2871.0
1235	2796.0
1236	2753.0
1237	2767.0
1238	2791.0
1239	2797.0
1240	2782.0
1241	2766.0
1242	2955.0
1243	3012.0
1244	2960.0
1245	2903.0
1246	2844.0
1247	2836.0
1248	2803.0
1249	2756.0
1250	2736.0
1251	2772.0
1252	2775.0
1253	2776.0
1254	2753.0
1255	2751.0
1256	2814.0
1257	2825.0
1258	2830.0
1259	2797.0
1260	2753.0
1261	2708.0
1262	2754.0
1263	2761.0
1264	2746.0
1265	2715.0
1266	2688.0
1267	2650.0
1268	2630.0
1269	2646.0
1270	2612.0
1271	2559.0
1272	2498.0
1273	2472.0
1274	2436.0
1275	2444.0
1276	2656.0
1277	2653.0
1278	2481.0
1279	2352.0
1280	2252.0
1281	2206.0
1282	2193.0
1283	2170.0
1284	2136.0
1285	2055.0
1286	2037.0
1287	2022.0
1288	2005.0
1289	1991.0
1290	1967.0
1291	1994.0
1292	2014.0
1293	1995.0
1294	2175.0
1295	2218.0
1296	2087.0
1297	2018.0
1298	1986.0
1299	2008.0
1300	2015.0
1301	2002.0
1302	1966.0
1303	1961.0
1304	1970.0
1305	1981.0
1306	2012.0
1307	1984.0
1308	1995.0
1309	2000.0
1310	1983.0
1311	1945.0
1312	1934.0
1313	1962.0
1314	1970.0
1315	2121.0
1316	2130.0
1317	2037.0
1318	2012.0
1319	2025.0
1320	2009.0
1321	2015.0
1322	1981.0
1323	1994.0
1324	2028.0
1325	2021.0
1326	1969.0
1327	1959.0
1328	1979.0
1329	1989.0
1330	1999.0
1331	1997.0
1332	1987.0
1333	1953.0
1334	1953.0
1335	1964.0
1336	1945.0
1337	1926.0
1338	1926.0
1339	2349.0
1340	2509.0
1341	2323.0
1342	2260.0
1343	2252.0
1344	2245.0
1345	2179.0
1346	2185.0
1347	2187.0
1348	2090.0
1349	2016.0
1350	1970.0
1351	1937.0
1352	1949.0
1353	1987.0
1354	2034.0
1355	2010.0
1356	1996.0
1357	2232.0
1358	2285.0
1359	2102.0
1360	2334.0
1361	2362.0
1362	2172.0
1363	2043.0
1364	2118.0
1365	2158.0
1366	2102.0
1367	2245.0
1368	2253.0
1369	2156.0
1370	2073.0
1371	2022.0
1372	1957.0
1373	1929.0
1374	1928.0
1375	2005.0
1376	2035.0
1377	1977.0
1378	1981.0
1379	2002.0
1380	2044.0
1381	2051.0
1382	2030.0
1383	1982.0
1384	1938.0
1385	1927.0
1386	1955.0
1387	1954.0
1388	1978.0
1389	2000.0
1390	1984.0
1391	1957.0
1392	1946.0
1393	1954.0
1394	1954.0
1395	1970.0
1396	1991.0
1397	1985.0
1398	1972.0
1399	1963.0
1400	3168.0
1401	3431.0
1402	2728.0
1403	2341.0
1404	2453.0
1405	2387.0
1406	2171.0
1407	2462.0
1408	2516.0
1409	2227.0
1410	2049.0
1411	2006.0
1412	1989.0
1413	2026.0
1414	2013.0
1415	1951.0
1416	1928.0
1417	1946.0
1418	1962.0
1419	1983.0
1420	1970.0
1421	2014.0
1422	2002.0
1423	1978.0
1424	1959.0
1425	1960.0
1426	1959.0
1427	1954.0
1428	1957.0
1429	2011.0
1430	2032.0
1431	1981.0
1432	1962.0
1433	1939.0
1434	2078.0
1435	2147.0
1436	2205.0
1437	2174.0
1438	2034.0
1439	2317.0
1440	2378.0
1441	2200.0
1442	2063.0
1443	2033.0
1444	2056.0
1445	2077.0
1446	2051.0
1447	2019.0
1448	1995.0
1449	1959.0
1450	1954.0
1451	1927.0
1452	1915.0
1453	1912.0
1454	1966.0
1455	1995.0
1456	1998.0
1457	1973.0
1458	1958.0
1459	2293.0
1460	2418.0
1461	2213.0
1462	2132.0
1463	2094.0
1464	2092.0
1465	2079.0
1466	2024.0
1467	2018.0
1468	1989.0
1469	1997.0
1470	1981.0
1471	1956.0
1472	1979.0
1473	1977.0
1474	1983.0
1475	1975.0
1476	1952.0
1477	1956.0
1478	1974.0
1479	1972.0
1480	1966.0
1481	2041.0
1482	2065.0
1483	1997.0
1484	2005.0
1485	2080.0
1486	2058.0
1487	1999.0
1488	1977.0
1489	2004.0
1490	1998.0
1491	1988.0
1492	2037.0
1493	2059.0
1494	2090.0
1495	2074.0
1496	2027.0
1497	2012.0
1498	2000.0
1499	1972.0
1500	1988.0
1501	1971.0
1502	2188.0
1503	2191.0
1504	2059.0
1505	2026.0
1506	2238.0
1507	2326.0
1508	2571.0
1509	2559.0
1510	2279.0
1511	2128.0
1512	2225.0
1513	2237.0
1514	2122.0
1515	2054.0
1516	2005.0
1517	2009.0
1518	1995.0
1519	1970.0
1520	1944.0
1521	1943.0
1522	1980.0
1523	1989.0
1524	2005.0
1525	1978.0
1526	1953.0
1527	1966.0
1528	1989.0
1529	1992.0
1530	1988.0
1531	1974.0
1532	2173.0
1533	2214.0
1534	2082.0
1535	2015.0
1536	1973.0
1537	2011.0
1538	2003.0
1539	1975.0
1540	1920.0
1541	1941.0
1542	1980.0
1543	1991.0
1544	2011.0
1545	2050.0
1546	2057.0
1547	2027.0
1548	1982.0
1549	1954.0
1550	1953.0
1551	1975.0
1552	2018.0
1553	2033.0
1554	2028.0
1555	2008.0
1556	2008.0
1557	1997.0
1558	2019.0
1559	2012.0
1560	1979.0
1561	1966.0
1562	1939.0
1563	1925.0
1564	1893.0
1565	1902.0
1566	1904.0
1567	1907.0
1568	1898.0
1569	1893.0
1570	1958.0
1571	2028.0
1572	2011.0
1573	1945.0
1574	1950.0
1575	1956.0
1576	1950.0
1577	2214.0
1578	2340.0
1579	2191.0
1580	2086.0
1581	2024.0
1582	1979.0
1583	1980.0
1584	1991.0
1585	2032.0
1586	2014.0
1587	2030.0
1588	2009.0
1589	1966.0
1590	1944.0
1591	1981.0
1592	2284.0
1593	2345.0
1594	2300.0
1595	2214.0
1596	2112.0
1597	2084.0
1598	2041.0
1599	1958.0
1600	1928.0
1601	1931.0
1602	1949.0
1603	1951.0
1604	1948.0
1605	1963.0
1606	1972.0
1607	1979.0
1608	1956.0
1609	1989.0
1610	1992.0
1611	2002.0
1612	1999.0
1613	1974.0
1614	1952.0
1615	1956.0
1616	2165.0
1617	2224.0
1618	2127.0
1619	2098.0
1620	2067.0
1621	2006.0
1622	2000.0
1623	1988.0
1624	1988.0
1625	1964.0
1626	1932.0
1627	1933.0
1628	1957.0
1629	1955.0
1630	1926.0
1631	1976.0
1632	2021.0
1633	2026.0
1634	2006.0
1635	2006.0
1636	1985.0
1637	1966.0
1638	2028.0
1639	2088.0
1640	2044.0
1641	1998.0
1642	1981.0
1643	1972.0
1644	1950.0
1645	1946.0
1646	2009.0
1647	2028.0
1648	2013.0
1649	1996.0
1650	1977.0
1651	1924.0
1652	1918.0
1653	1942.0
1654	1959.0
1655	1950.0
1656	1961.0
1657	1973.0
1658	1955.0
1659	1918.0
1660	1902.0
1661	1913.0
1662	1922.0
1663	1937.0
1664	1997.0
1665	1966.0
1666	1976.0
1667	2024.0
1668	2026.0
1669	1993.0
1670	1991.0
1671	1967.0
1672	1987.0
1673	1961.0
1674	1966.0
1675	2002.0
1676	1983.0
1677	1960.0
1678	1935.0
1679	1928.0
1680	1929.0
1681	1970.0
1682	1979.0
1683	1958.0
1684	1931.0
1685	1953.0
1686	1943.0
1687	1979.0
1688	1973.0
1689	1968.0
1690	1993.0
1691	1982.0
1692	2275.0
1693	2328.0
1694	2188.0
1695	2120.0
1696	2060.0
1697	2045.0
1698	2029.0
1699	1987.0
1700	1976.0
1701	1976.0
1702	1998.0
1703	2004.0
1704	1981.0
1705	2161.0
1706	2198.0
1707	2103.0
1708	2011.0
1709	1978.0
1710	1969.0
1711	1960.0
1712	1977.0
1713	1988.0
1714	1982.0
1715	2058.0
1716	2086.0
1717	2309.0
1718	2363.0
1719	2196.0
1720	2122.0
1721	2045.0
1722	2037.0
1723	2324.0
1724	2372.0
1725	2200.0
1726	2111.0
1727	2071.0
1728	2036.0
1729	2039.0
1730	1991.0
1731	2297.0
1732	2352.0
1733	2327.0
1734	2251.0
1735	2106.0
1736	2080.0
1737	2056.0
1738	2006.0
1739	1968.0
1740	1967.0
1741	1982.0
1742	1984.0
1743	1936.0
1744	1929.0
1745	1950.0
1746	1959.0
1747	1962.0
1748	1951.0
1749	1953.0
1750	1982.0
1751	1972.0
1752	2182.0
1753	2255.0
1754	2196.0
1755	2263.0
1756	2192.0
1757	2072.0
1758	2013.0
1759	2054.0
1760	2100.0
1761	2037.0
1762	2008.0
1763	1980.0
1764	1953.0
1765	1932.0
1766	1985.0
1767	2145.0
1768	2169.0
1769	2052.0
1770	1984.0
1771	1925.0
1772	1905.0
1773	1913.0
1774	1917.0
1775	1942.0
1776	1937.0
1777	1945.0
1778	2050.0
1779	2112.0
1780	2052.0
1781	1999.0
1782	1984.0
1783	2007.0
1784	2029.0
1785	2017.0
1786	2018.0
1787	2000.0
1788	1993.0
1789	1971.0
1790	1985.0
1791	1972.0
1792	2000.0
1793	2034.0
1794	2018.0
1795	1965.0
1796	1944.0
1797	1956.0
1798	1971.0
1799	1943.0
1800	1909.0
1801	1937.0
1802	1951.0
1803	1957.0
1804	1941.0
1805	1939.0
1806	1934.0
1807	1954.0
1808	1959.0
1809	1952.0
1810	1967.0
1811	1976.0
1812	2007.0
1813	1980.0
1814	1970.0
1815	1980.0
1816	1989.0
1817	1985.0
1818	2021.0
1819	2034.0
1820	2106.0
1821	2092.0
1822	1986.0
1823	1983.0
1824	1971.0
1825	1967.0
1826	1944.0
1827	2017.0
1828	2094.0
1829	2066.0
1830	2060.0
1831	2048.0
1832	2021.0
1833	2035.0
1834	2096.0
1835	2102.0
1836	2040.0
1837	2025.0
1838	2025.0
1839	1969.0
1840	1963.0
1841	1950.0
1842	1984.0
1843	1980.0
1844	2204.0
1845	2274.0
1846	2108.0
1847	2011.0
1848	2042.0
1849	2123.0
1850	2094.0
1851	2084.0
1852	2025.0
1853	1971.0
1854	1991.0
1855	1997.0
1856	1953.0
1857	1939.0
1858	1985.0
1859	1961.0
1860	1944.0
1861	1924.0
1862	1910.0
1863	1900.0
1864	1977.0
1865	1982.0
1866	1962.0
1867	1937.0
1868	1923.0
1869	2190.0
1870	2338.0
1871	2219.0
1872	2092.0
1873	2031.0
1874	1984.0
1875	1981.0
1876	1983.0
1877	1984.0
1878	1938.0
1879	1921.0
1880	1986.0
1881	2016.0
1882	1989.0
1883	1947.0
1884	1962.0
1885	1956.0
1886	1951.0
1887	1953.0
1888	1971.0
1889	1955.0
1890	2180.0
1891	2260.0
1892	2144.0
1893	2070.0
1894	2042.0
1895	2056.0
1896	2053.0
1897	2050.0
1898	2045.0
1899	2043.0
1900	3541.0
1901	3889.0
1902	2983.0
1903	2620.0
1904	2381.0
1905	2151.0
1906	2138.0
1907	2290.0
1908	2293.0
1909	2300.0
1910	2229.0
1911	2081.0
1912	2288.0
1913	2309.0
1914	2146.0
1915	2057.0
1916	2029.0
1917	2032.0
1918	2008.0
1919	1998.0
1920	1977.0
1921	1981.0
1922	1964.0
1923	1940.0
1924	1932.0
1925	1931.0
1926	1925.0
1927	1989.0
1928	2001.0
1929	2019.0
1930	2011.0
1931	1998.0
1932	2020.0
1933	2002.0
1934	2001.0
1935	2002.0
1936	2253.0
1937	2282.0
1938	2093.0
1939	1977.0
1940	1956.0
1941	1985.0
1942	2017.0
1943	2018.0
1944	1950.0
1945	1951.0
1946	2023.0
1947	2062.0
1948	2010.0
1949	1971.0
1950	1952.0
1951	1983.0
1952	1956.0
1953	2016.0
1954	2052.0
1955	2144.0
1956	2128.0
1957	2021.0
1958	2028.0
1959	2042.0
1960	2025.0
1961	1986.0
1962	2003.0
1963	1986.0
1964	1957.0
1965	1945.0
1966	1930.0
1967	1911.0
1968	1928.0
1969	1987.0
1970	1962.0
1971	1948.0
1972	1949.0
1973	1955.0
1974	1963.0
1975	1968.0
1976	2064.0
1977	2063.0
1978	2011.0
1979	1980.0
1980	1978.0
1981	1966.0
1982	1982.0
1983	1959.0
1984	2001.0
1985	2007.0
1986	2002.0
1987	1981.0
1988	1969.0
1989	1963.0
1990	1985.0
1991	2031.0
1992	2000.0
1993	2097.0
1994	2111.0
1995	2030.0
1996	1990.0
1997	1973.0
1998	1952.0
1999	1964.0
2000	1947.0
2001	1966.0
2002	2168.0
2003	2221.0
2004	2112.0
2005	2001.0
2006	1978.0
2007	1967.0
2008	1951.0
2009	1941.0
2010	1971.0
2011	1972.0
2012	1961.0
2013	1963.0
2014	1958.0
2015	2035.0
2016	2043.0
2017	2040.0
2018	2024.0
2019	1991.0
2020	1958.0
2021	1952.0
2022	1990.0
2023	2013.0
2024	2036.0
2025	2010.0
2026	2768.0
2027	3398.0
2028	3020.0
2029	2760.0
2030	2573.0
2031	2251.0
2032	2107.0
2033	2489.0
2034	2568.0
2035	2269.0
2036	2145.0
2037	2060.0
2038	2271.0
2039	2376.0
2040	2235.0
2041	2153.0
2042	2087.0
2043	2101.0
2044	2058.0
2045	2092.0
2046	2077.0
2047	2039.0
