================================================================================
RAMAN SPECTROMETER DEBUG LOG
Timestamp: 2026-01-19T16:06:49.751464
================================================================================

--- CONFIGURATION ---
Port: /dev/ttyUSB0
Baudrate: 9600
Integration time: 2000 ms
Timeout: 10.0 s
Expected data points: 2048
Min data points: 2048

--- RAW DATA INFO ---
Total bytes received: 14371
Null bytes count: 1

--- RAW BYTES (first 500, hex) ---
61 0d 0a 41 43 4b 0d 0a 0d 0a 49 32 30 30 30 0d 
0a 41 43 4b 0d 0a 0d 0a 53 0d 0a 41 43 4b 0d 0a 
30 31 39 36 32 0d 0a 30 31 39 38 32 0d 0a 30 31 
39 37 32 0d 0a 30 31 39 35 32 0d 0a 30 31 39 35 
38 0d 0a 30 31 39 32 36 0d 0a 30 31 39 30 36 0d 
0a 30 31 39 30 31 0d 0a 30 31 39 30 38 0d 0a 30 
31 39 32 32 0d 0a 30 31 39 32 33 0d 0a 30 31 39 
31 31 0d 0a 30 31 38 39 39 0d 0a 30 31 39 30 33 
0d 0a 30 31 38 39 35 0d 0a 30 32 31 37 39 0d 0a 
30 32 32 33 36 0d 0a 30 32 31 30 32 0d 0a 30 32 
30 32 37 0d 0a 30 31 39 39 39 0d 0a 30 31 39 39 
32 0d 0a 30 31 39 37 36 0d 0a 30 32 30 36 38 0d 
0a 30 32 30 36 36 0d 0a 30 32 30 35 39 0d 0a 30 
32 30 34 35 0d 0a 30 32 30 34 37 0d 0a 30 32 30 
32 35 0d 0a 30 32 30 31 32 0d 0a 30 32 30 30 35 
0d 0a 30 32 31 39 38 0d 0a 30 32 33 31 32 0d 0a 
30 32 32 32 33 0d 0a 30 32 30 39 35 0d 0a 30 32 
30 35 39 0d 0a 30 32 30 31 32 0d 0a 30 31 39 36 
30 0d 0a 30 31 39 34 37 0d 0a 30 31 39 35 32 0d 
0a 30 31 39 39 37 0d 0a 30 32 30 31 34 0d 0a 30 
32 30 35 33 0d 0a 30 32 30 32 36 0d 0a 30 32 30 
32 36 0d 0a 30 32 33 39 35 0d 0a 30 32 34 36 30 
0d 0a 30 32 32 32 32 0d 0a 30 32 30 39 35 0d 0a 
30 32 30 32 38 0d 0a 30 31 39 37 35 0d 0a 30 31 
39 38 31 0d 0a 30 31 39 38 35 0d 0a 30 31 39 38 
32 0d 0a 30 31 39 34 38 0d 0a 30 31 39 38 32 0d 
0a 30 32 30 30 31 0d 0a 30 31 39 39 30 0d 0a 30 
32 31 36 37 0d 0a 30 32 31 38 30 0d 0a 30 32 30 
38 30 0d 0a 30 32 30 36 36 0d 0a 30 32 30 34 33 
0d 0a 30 31 39 35 39 0d 0a 30 31 39 36 30 0d 0a 
30 31 39 36 39 0d 0a 30 31 39 38 34 0d 0a 30 32 
31 31 31 0d

--- RAW DATA AS STRING (first 1000 chars) ---
a
ACK

I2000
ACK

S
ACK
01962
01982
01972
01952
01958
01926
01906
01901
01908
01922
01923
01911
01899
01903
01895
02179
02236
02102
02027
01999
01992
01976
02068
02066
02059
02045
02047
02025
02012
02005
02198
02312
02223
02095
02059
02012
01960
01947
01952
01997
02014
02053
02026
02026
02395
02460
02222
02095
02028
01975
01981
01985
01982
01948
01982
02001
01990
02167
02180
02080
02066
02043
01959
01960
01969
01984
02111
02157
02075
02074
02097
02056
01993
01969
01980
01946
01939
01916
01944
01957
01951
01957
01951
01972
04075
04572
03322
02683
02316
02162
02084
02092
02340
02319
02125
02086
02066
02020
01986
02009
02094
02062
02061
02043
02001
01976
01968
01992
02015
02049
01999
01990
02000
02005
01987
01987
01986
01983
01993
02047
02051
02003
02047
02106
02058
02029
02030
02005
01993
01981
01978
01946
01953
02091
02126
02056
01970
01947
01

--- PARSED VALUES ---
Total parsed values: 2048
Min value: 1893.0
Max value: 65535.0
Mean value: 9977.616
Saturated values (>=65535): 190
First 20 values: [1962.0, 1982.0, 1972.0, 1952.0, 1958.0, 1926.0, 1906.0, 1901.0, 1908.0, 1922.0, 1923.0, 1911.0, 1899.0, 1903.0, 1895.0, 2179.0, 2236.0, 2102.0, 2027.0, 1999.0]
Last 20 values: [3068.0, 2807.0, 2570.0, 2255.0, 2077.0, 2447.0, 2558.0, 2283.0, 2158.0, 2074.0, 2306.0, 2372.0, 2232.0, 2115.0, 2075.0, 2090.0, 2049.0, 2047.0, 2027.0, 2027.0]

--- FULL SPECTRUM DATA (one value per line) ---
0	1962.0
1	1982.0
2	1972.0
3	1952.0
4	1958.0
5	1926.0
6	1906.0
7	1901.0
8	1908.0
9	1922.0
10	1923.0
11	1911.0
12	1899.0
13	1903.0
14	1895.0
15	2179.0
16	2236.0
17	2102.0
18	2027.0
19	1999.0
20	1992.0
21	1976.0
22	2068.0
23	2066.0
24	2059.0
25	2045.0
26	2047.0
27	2025.0
28	2012.0
29	2005.0
30	2198.0
31	2312.0
32	2223.0
33	2095.0
34	2059.0
35	2012.0
36	1960.0
37	1947.0
38	1952.0
39	1997.0
40	2014.0
41	2053.0
42	2026.0
43	2026.0
44	2395.0
45	2460.0
46	2222.0
47	2095.0
48	2028.0
49	1975.0
50	1981.0
51	1985.0
52	1982.0
53	1948.0
54	1982.0
55	2001.0
56	1990.0
57	2167.0
58	2180.0
59	2080.0
60	2066.0
61	2043.0
62	1959.0
63	1960.0
64	1969.0
65	1984.0
66	2111.0
67	2157.0
68	2075.0
69	2074.0
70	2097.0
71	2056.0
72	1993.0
73	1969.0
74	1980.0
75	1946.0
76	1939.0
77	1916.0
78	1944.0
79	1957.0
80	1951.0
81	1957.0
82	1951.0
83	1972.0
84	4075.0
85	4572.0
86	3322.0
87	2683.0
88	2316.0
89	2162.0
90	2084.0
91	2092.0
92	2340.0
93	2319.0
94	2125.0
95	2086.0
96	2066.0
97	2020.0
98	1986.0
99	2009.0
100	2094.0
101	2062.0
102	2061.0
103	2043.0
104	2001.0
105	1976.0
106	1968.0
107	1992.0
108	2015.0
109	2049.0
110	1999.0
111	1990.0
112	2000.0
113	2005.0
114	1987.0
115	1987.0
116	1986.0
117	1983.0
118	1993.0
119	2047.0
120	2051.0
121	2003.0
122	2047.0
123	2106.0
124	2058.0
125	2029.0
126	2030.0
127	2005.0
128	1993.0
129	1981.0
130	1978.0
131	1946.0
132	1953.0
133	2091.0
134	2126.0
135	2056.0
136	1970.0
137	1947.0
138	1929.0
139	1956.0
140	1957.0
141	2762.0
142	2940.0
143	2457.0
144	2217.0
145	2052.0
146	2123.0
147	2125.0
148	2179.0
149	2145.0
150	2070.0
151	2019.0
152	2020.0
153	1989.0
154	1947.0
155	1976.0
156	2000.0
157	1985.0
158	1979.0
159	1984.0
160	1988.0
161	2002.0
162	2164.0
163	2226.0
164	2106.0
165	2052.0
166	2032.0
167	2077.0
168	2061.0
169	2009.0
170	2012.0
171	2028.0
172	2037.0
173	2002.0
174	1985.0
175	2015.0
176	2022.0
177	1978.0
178	1960.0
179	1985.0
180	1980.0
181	1994.0
182	1978.0
183	1954.0
184	1936.0
185	1955.0
186	1941.0
187	1941.0
188	1942.0
189	2176.0
190	2218.0
191	2092.0
192	1996.0
193	1935.0
194	2035.0
195	2081.0
196	2083.0
197	2080.0
198	2047.0
199	2026.0
200	2063.0
201	2036.0
202	2046.0
203	2036.0
204	1990.0
205	1977.0
206	1957.0
207	1961.0
208	1982.0
209	1993.0
210	1977.0
211	2036.0
212	2035.0
213	2198.0
214	2602.0
215	2577.0
216	2330.0
217	2196.0
218	2086.0
219	2022.0
220	1990.0
221	1956.0
222	1932.0
223	1903.0
224	1894.0
225	1920.0
226	1946.0
227	1937.0
228	1922.0
229	1954.0
230	1957.0
231	2007.0
232	2006.0
233	2406.0
234	2496.0
235	2248.0
236	2061.0
237	2021.0
238	2103.0
239	2095.0
240	2035.0
241	2711.0
242	2906.0
243	2697.0
244	2540.0
245	2276.0
246	2192.0
247	2535.0
248	2531.0
249	2277.0
250	2161.0
251	2064.0
252	2038.0
253	2045.0
254	2022.0
255	2029.0
256	2031.0
257	2008.0
258	1972.0
259	1964.0
260	1971.0
261	1974.0
262	1966.0
263	2001.0
264	1979.0
265	2405.0
266	2514.0
267	2229.0
268	2102.0
269	2047.0
270	2042.0
271	1997.0
272	2003.0
273	2006.0
274	2000.0
275	1991.0
276	1993.0
277	2004.0
278	1972.0
279	1940.0
280	1932.0
281	1974.0
282	2009.0
283	2014.0
284	2008.0
285	2012.0
286	2006.0
287	2033.0
288	1981.0
289	1956.0
290	1977.0
291	1988.0
292	1968.0
293	1934.0
294	1933.0
295	1939.0
296	1964.0
297	1938.0
298	1945.0
299	2017.0
300	2023.0
301	2034.0
302	1992.0
303	2001.0
304	2010.0
305	2023.0
306	1999.0
307	1954.0
308	1940.0
309	2142.0
310	2328.0
311	2269.0
312	2130.0
313	2057.0
314	2151.0
315	2136.0
316	2052.0
317	2013.0
318	1974.0
319	1977.0
320	1974.0
321	1940.0
322	1943.0
323	1924.0
324	1942.0
325	1974.0
326	1951.0
327	1958.0
328	1961.0
329	2285.0
330	2356.0
331	2370.0
332	2294.0
333	2143.0
334	2065.0
335	2297.0
336	2345.0
337	2176.0
338	2085.0
339	2023.0
340	1979.0
341	2006.0
342	2050.0
343	2065.0
344	2055.0
345	2014.0
346	2030.0
347	2017.0
348	2020.0
349	1996.0
350	1996.0
351	2016.0
352	1998.0
353	1985.0
354	1971.0
355	2002.0
356	2038.0
357	2047.0
358	2024.0
359	2012.0
360	2005.0
361	2064.0
362	2033.0
363	1952.0
364	1974.0
365	2017.0
366	2000.0
367	1988.0
368	1994.0
369	1983.0
370	1999.0
371	1993.0
372	1970.0
373	1966.0
374	1973.0
375	1981.0
376	2038.0
377	2114.0
378	2126.0
379	2104.0
380	2096.0
381	2077.0
382	2000.0
383	1961.0
384	1959.0
385	1995.0
386	2003.0
387	2012.0
388	2043.0
389	2020.0
390	1977.0
391	2201.0
392	2264.0
393	2110.0
394	2028.0
395	1998.0
396	2052.0
397	2035.0
398	2017.0
399	2004.0
400	1972.0
401	1957.0
402	1963.0
403	1960.0
404	2144.0
405	2177.0
406	2048.0
407	2012.0
408	1993.0
409	1981.0
410	1977.0
411	2007.0
412	2033.0
413	2009.0
414	1963.0
415	1944.0
416	1968.0
417	1957.0
418	1951.0
419	2070.0
420	2116.0
421	2157.0
422	2305.0
423	2253.0
424	2093.0
425	2031.0
426	1966.0
427	1933.0
428	1980.0
429	2027.0
430	1995.0
431	1969.0
432	1991.0
433	2035.0
434	2010.0
435	1990.0
436	2113.0
437	2125.0
438	2037.0
439	2013.0
440	2405.0
441	2471.0
442	2238.0
443	2104.0
444	2042.0
445	2297.0
446	2348.0
447	2183.0
448	2162.0
449	2097.0
450	1988.0
451	1969.0
452	1949.0
453	1971.0
454	1934.0
455	1981.0
456	2036.0
457	2013.0
458	1980.0
459	2041.0
460	2031.0
461	2106.0
462	2191.0
463	2079.0
464	2014.0
465	1988.0
466	2013.0
467	2011.0
468	2003.0
469	1965.0
470	1963.0
471	1962.0
472	1983.0
473	1995.0
474	2216.0
475	2260.0
476	2100.0
477	2063.0
478	2118.0
479	2241.0
480	2212.0
481	2097.0
482	2019.0
483	1986.0
484	1989.0
485	2005.0
486	2049.0
487	2025.0
488	1986.0
489	1950.0
490	1953.0
491	1978.0
492	2032.0
493	2066.0
494	2066.0
495	2030.0
496	2031.0
497	2021.0
498	1983.0
499	1959.0
500	1948.0
501	1979.0
502	1967.0
503	1954.0
504	1985.0
505	2015.0
506	1970.0
507	1939.0
508	1938.0
509	1929.0
510	1931.0
511	1915.0
512	1998.0
513	1981.0
514	1966.0
515	1944.0
516	1963.0
517	2090.0
518	2356.0
519	2358.0
520	2227.0
521	2135.0
522	2039.0
523	1982.0
524	1966.0
525	1960.0
526	1961.0
527	1987.0
528	1953.0
529	1991.0
530	1989.0
531	1957.0
532	1950.0
533	1954.0
534	1950.0
535	1958.0
536	1986.0
537	1954.0
538	1944.0
539	1934.0
540	1967.0
541	2011.0
542	2012.0
543	2014.0
544	2038.0
545	2030.0
546	1965.0
547	1969.0
548	1999.0
549	2008.0
550	2036.0
551	2062.0
552	2026.0
553	1988.0
554	1956.0
555	1973.0
556	1953.0
557	1968.0
558	2001.0
559	2017.0
560	2036.0
561	2012.0
562	2014.0
563	1969.0
564	2018.0
565	2028.0
566	2027.0
567	2042.0
568	2023.0
569	2007.0
570	1995.0
571	1971.0
572	1942.0
573	2033.0
574	2023.0
575	1973.0
576	1940.0
577	1959.0
578	1961.0
579	1925.0
580	1906.0
581	1924.0
582	1956.0
583	1979.0
584	1951.0
585	1950.0
586	2015.0
587	2039.0
588	2022.0
589	1992.0
590	1984.0
591	2058.0
592	2065.0
593	1995.0
594	1971.0
595	1977.0
596	2201.0
597	2390.0
598	2264.0
599	2117.0
600	2006.0
601	1962.0
602	1942.0
603	1973.0
604	1992.0
605	2098.0
606	2120.0
607	2031.0
608	2005.0
609	2316.0
610	2391.0
611	2180.0
612	2081.0
613	2016.0
614	1971.0
615	1963.0
616	1958.0
617	1957.0
618	1971.0
619	1957.0
620	1974.0
621	1976.0
622	1948.0
623	1943.0
624	2019.0
625	2066.0
626	2021.0
627	1991.0
628	1957.0
629	1953.0
630	1940.0
631	1919.0
632	1965.0
633	1958.0
634	1957.0
635	1930.0
636	1933.0
637	1920.0
638	3017.0
639	3267.0
640	2616.0
641	2261.0
642	2104.0
643	2265.0
644	2295.0
645	2170.0
646	2094.0
647	2039.0
648	2016.0
649	2033.0
650	2005.0
651	1979.0
652	1965.0
653	1982.0
654	1967.0
655	1965.0
656	1998.0
657	2011.0
658	2026.0
659	2058.0
660	2050.0
661	2009.0
662	2160.0
663	2189.0
664	2095.0
665	2062.0
666	2081.0
667	2095.0
668	2023.0
669	1997.0
670	1999.0
671	1974.0
672	1972.0
673	1977.0
674	1939.0
675	1980.0
676	1992.0
677	1981.0
678	1966.0
679	1958.0
680	2089.0
681	2120.0
682	2086.0
683	2061.0
684	2043.0
685	1978.0
686	1964.0
687	1952.0
688	2293.0
689	2352.0
690	2144.0
691	2046.0
692	2025.0
693	2170.0
694	2153.0
695	2069.0
696	2022.0
697	2020.0
698	2018.0
699	2086.0
700	2077.0
701	2046.0
702	1988.0
703	2052.0
704	2116.0
705	2100.0
706	2045.0
707	1995.0
708	2068.0
709	2078.0
710	2219.0
711	2213.0
712	2077.0
713	2016.0
714	2016.0
715	1987.0
716	1982.0
717	2174.0
718	2200.0
719	2192.0
720	2165.0
721	2118.0
722	2089.0
723	2090.0
724	2043.0
725	2241.0
726	2273.0
727	2116.0
728	2046.0
729	2001.0
730	2029.0
731	2062.0
732	2063.0
733	2080.0
734	2297.0
735	2362.0
736	2628.0
737	2650.0
738	2473.0
739	2283.0
740	2144.0
741	2092.0
742	2082.0
743	2087.0
744	2078.0
745	2058.0
746	2033.0
747	2302.0
748	2360.0
749	2217.0
750	2136.0
751	2080.0
752	2182.0
753	2233.0
754	2154.0
755	2076.0
756	2092.0
757	2339.0
758	2367.0
759	2185.0
760	2116.0
761	2095.0
762	2110.0
763	2144.0
764	2148.0
765	2112.0
766	2093.0
767	2075.0
768	2049.0
769	2055.0
770	2055.0
771	2037.0
772	2015.0
773	2058.0
774	2048.0
775	2042.0
776	2047.0
777	2080.0
778	2087.0
779	2076.0
780	2105.0
781	2154.0
782	2172.0
783	2134.0
784	2106.0
785	2112.0
786	2099.0
787	2098.0
788	2131.0
789	2117.0
790	2120.0
791	2141.0
792	2130.0
793	2140.0
794	2151.0
795	2120.0
796	2091.0
797	2105.0
798	2140.0
799	2285.0
800	2325.0
801	2244.0
802	2181.0
803	2125.0
804	2136.0
805	2161.0
806	2200.0
807	2155.0
808	2135.0
809	2132.0
810	2111.0
811	2135.0
812	2358.0
813	2443.0
814	2346.0
815	2278.0
816	2224.0
817	2213.0
818	2203.0
819	2282.0
820	2316.0
821	2322.0
822	2321.0
823	2286.0
824	2240.0
825	2236.0
826	2214.0
827	2291.0
828	2273.0
829	2194.0
830	2203.0
831	2200.0
832	2180.0
833	2242.0
834	2276.0
835	2224.0
836	2230.0
837	2216.0
838	2190.0
839	2178.0
840	2206.0
841	2250.0
842	2263.0
843	2252.0
844	2255.0
845	2260.0
846	2250.0
847	2223.0
848	2231.0
849	2223.0
850	2239.0
851	2272.0
852	2537.0
853	2599.0
854	2434.0
855	2592.0
856	2620.0
857	2470.0
858	2378.0
859	2378.0
860	2397.0
861	2338.0
862	2390.0
863	2384.0
864	2349.0
865	2322.0
866	2286.0
867	2270.0
868	2258.0
869	2284.0
870	2287.0
871	2374.0
872	2393.0
873	2339.0
874	2323.0
875	2350.0
876	2327.0
877	2297.0
878	2349.0
879	2364.0
880	2367.0
881	2339.0
882	2327.0
883	2323.0
884	2331.0
885	2334.0
886	2364.0
887	2353.0
888	2365.0
889	2338.0
890	2313.0
891	2329.0
892	2365.0
893	2365.0
894	2324.0
895	2318.0
896	2342.0
897	2354.0
898	2338.0
899	2391.0
900	2452.0
901	2433.0
902	2397.0
903	2527.0
904	2572.0
905	2462.0
906	2500.0
907	2481.0
908	2662.0
909	2700.0
910	2590.0
911	2540.0
912	2512.0
913	2506.0
914	2520.0
915	2550.0
916	2512.0
917	3272.0
918	3475.0
919	3000.0
920	2721.0
921	2589.0
922	2498.0
923	2488.0
924	2466.0
925	2479.0
926	2448.0
927	2454.0
928	2506.0
929	2517.0
930	2616.0
931	2629.0
932	2593.0
933	2559.0
934	2613.0
935	2647.0
936	2636.0
937	2641.0
938	2757.0
939	2810.0
940	2717.0
941	2639.0
942	2604.0
943	2586.0
944	2567.0
945	2578.0
946	2562.0
947	2617.0
948	2642.0
949	2630.0
950	2648.0
951	2652.0
952	2649.0
953	2615.0
954	2617.0
955	2656.0
956	2719.0
957	2739.0
958	2776.0
959	2742.0
960	2687.0
961	2679.0
962	2793.0
963	2867.0
964	2804.0
965	2758.0
966	2751.0
967	2757.0
968	2734.0
969	2745.0
970	2722.0
971	2733.0
972	2733.0
973	2772.0
974	2783.0
975	2791.0
976	2859.0
977	2909.0
978	2954.0
979	2968.0
980	2987.0
981	2997.0
982	3023.0
983	3874.0
984	4157.0
985	3805.0
986	3742.0
987	3905.0
988	4104.0
989	4370.0
990	4644.0
991	4968.0
992	5317.0
993	5684.0
994	6098.0
995	6792.0
996	7364.0
997	7797.0
998	8387.0
999	8956.0
1000	9702.0
1001	10548.0
1002	11505.0
1003	12588.0
1004	13845.0
1005	15238.0
1006	16668.0
1007	18179.0
1008	19648.0
1009	21012.0
1010	22346.0
1011	23673.0
1012	24977.0
1013	26360.0
1014	27658.0
1015	28829.0
1016	29957.0
1017	31106.0
1018	32004.0
1019	32787.0
1020	33534.0
1021	34260.0
1022	35176.0
1023	35968.0
1024	36676.0
1025	37360.0
1026	38044.0
1027	38726.0
1028	39347.0
1029	40109.0
1030	40883.0
1031	41476.0
1032	42070.0
1033	42758.0
1034	43382.0
1035	44001.0
1036	44559.0
1037	45048.0
1038	45436.0
1039	45953.0
1040	46498.0
1041	47360.0
1042	47822.0
1043	48123.0
1044	48437.0
1045	48671.0
1046	48989.0
1047	50044.0
1048	50656.0
1049	50738.0
1050	50887.0
1051	51251.0
1052	51711.0
1053	51996.0
1054	52394.0
1055	52822.0
1056	53397.0
1057	53927.0
1058	54336.0
1059	54789.0
1060	55346.0
1061	56087.0
1062	56887.0
1063	57473.0
1064	57813.0
1065	58308.0
1066	58996.0
1067	59660.0
1068	60291.0
1069	61142.0
1070	61981.0
1071	62492.0
1072	62912.0
1073	63273.0
1074	63543.0
1075	63811.0
1076	64101.0
1077	64437.0
1078	64770.0
1079	65137.0
1080	65535.0
1081	65535.0
1082	65535.0
1083	65535.0
1084	65535.0
1085	65535.0
1086	65535.0
1087	65535.0
1088	65535.0
1089	65535.0
1090	65535.0
1091	65535.0
1092	65535.0
1093	65535.0
1094	65535.0
1095	65535.0
1096	65535.0
1097	65535.0
1098	65535.0
1099	65535.0
1100	65535.0
1101	65535.0
1102	65535.0
1103	65535.0
1104	65535.0
1105	65535.0
1106	65535.0
1107	65535.0
1108	65535.0
1109	65535.0
1110	65535.0
1111	65535.0
1112	65535.0
1113	65535.0
1114	65535.0
1115	65535.0
1116	65535.0
1117	65535.0
1118	65535.0
1119	65535.0
1120	65535.0
1121	65535.0
1122	65535.0
1123	65535.0
1124	65535.0
1125	65535.0
1126	65535.0
1127	65535.0
1128	65535.0
1129	65535.0
1130	65535.0
1131	65535.0
1132	65535.0
1133	65535.0
1134	65535.0
1135	65535.0
1136	65535.0
1137	65535.0
1138	65535.0
1139	65535.0
1140	65535.0
1141	65535.0
1142	65535.0
1143	65535.0
1144	65535.0
1145	65535.0
1146	65535.0
1147	65535.0
1148	65535.0
1149	65535.0
1150	65535.0
1151	65535.0
1152	65535.0
1153	65535.0
1154	65535.0
1155	65535.0
1156	65535.0
1157	65535.0
1158	65535.0
1159	65535.0
1160	65535.0
1161	65535.0
1162	65535.0
1163	65535.0
1164	65535.0
1165	65535.0
1166	65535.0
1167	65535.0
1168	65535.0
1169	65535.0
1170	65535.0
1171	65535.0
1172	65535.0
1173	65535.0
1174	65535.0
1175	65535.0
1176	65535.0
1177	65535.0
1178	65535.0
1179	65535.0
1180	65535.0
1181	65535.0
1182	65535.0
1183	65535.0
1184	65535.0
1185	65535.0
1186	65535.0
1187	65535.0
1188	65535.0
1189	65535.0
1190	65535.0
1191	65535.0
1192	65535.0
1193	65535.0
1194	65535.0
1195	65535.0
1196	65535.0
1197	65535.0
1198	65535.0
1199	65535.0
1200	65535.0
1201	65535.0
1202	65535.0
1203	65535.0
1204	65535.0
1205	65535.0
1206	65535.0
1207	65535.0
1208	65535.0
1209	65535.0
1210	65535.0
1211	65535.0
1212	65535.0
1213	65535.0
1214	65535.0
1215	65535.0
1216	65535.0
1217	65535.0
1218	65535.0
1219	65535.0
1220	65535.0
1221	65535.0
1222	65535.0
1223	65535.0
1224	65535.0
1225	65535.0
1226	65535.0
1227	65535.0
1228	65535.0
1229	65535.0
1230	65535.0
1231	65535.0
1232	65535.0
1233	65535.0
1234	65535.0
1235	65535.0
1236	65535.0
1237	65535.0
1238	65535.0
1239	65535.0
1240	65535.0
1241	65535.0
1242	65535.0
1243	65535.0
1244	65535.0
1245	65535.0
1246	65535.0
1247	65535.0
1248	65535.0
1249	65535.0
1250	65535.0
1251	65535.0
1252	65535.0
1253	65535.0
1254	65535.0
1255	65535.0
1256	65535.0
1257	65535.0
1258	65535.0
1259	65535.0
1260	65535.0
1261	65535.0
1262	65535.0
1263	65535.0
1264	65535.0
1265	65535.0
1266	65535.0
1267	65535.0
1268	65535.0
1269	65535.0
1270	64135.0
1271	60883.0
1272	57880.0
1273	55126.0
1274	52382.0
1275	49401.0
1276	46719.0
1277	43770.0
1278	40292.0
1279	36962.0
1280	33861.0
1281	30783.0
1282	27798.0
1283	24863.0
1284	22156.0
1285	19593.0
1286	17135.0
1287	14854.0
1288	12797.0
1289	10863.0
1290	9113.0
1291	7537.0
1292	6165.0
1293	5007.0
1294	4249.0
1295	3550.0
1296	2922.0
1297	2574.0
1298	2376.0
1299	2273.0
1300	2180.0
1301	2166.0
1302	2142.0
1303	2145.0
1304	2153.0
1305	2184.0
1306	2148.0
1307	2106.0
1308	2104.0
1309	2087.0
1310	2082.0
1311	2090.0
1312	2070.0
1313	2061.0
1314	2070.0
1315	2200.0
1316	2248.0
1317	2159.0
1318	2120.0
1319	2085.0
1320	2066.0
1321	2099.0
1322	2094.0
1323	2080.0
1324	2084.0
1325	2096.0
1326	2098.0
1327	2058.0
1328	2049.0
1329	2049.0
1330	2040.0
1331	2007.0
1332	2034.0
1333	2029.0
1334	2031.0
1335	2022.0
1336	2026.0
1337	2012.0
1338	2008.0
1339	2386.0
1340	2546.0
1341	2382.0
1342	2350.0
1343	2335.0
1344	2297.0
1345	2229.0
1346	2287.0
1347	2248.0
1348	2101.0
1349	2028.0
1350	2008.0
1351	2017.0
1352	2040.0
1353	2084.0
1354	2097.0
1355	2111.0
1356	2077.0
1357	2281.0
1358	2321.0
1359	2170.0
1360	2449.0
1361	2469.0
1362	2250.0
1363	2108.0
1364	2172.0
1365	2193.0
1366	2122.0
1367	2246.0
1368	2262.0
1369	2193.0
1370	2145.0
1371	2082.0
1372	2026.0
1373	2000.0
1374	2003.0
1375	2067.0
1376	2113.0
1377	2108.0
1378	2050.0
1379	2031.0
1380	2067.0
1381	2092.0
1382	2086.0
1383	2029.0
1384	2028.0
1385	1987.0
1386	1986.0
1387	1988.0
1388	2004.0
1389	2018.0
1390	2018.0
1391	2050.0
1392	2022.0
1393	1990.0
1394	1994.0
1395	2016.0
1396	2043.0
1397	2051.0
1398	1998.0
1399	1986.0
1400	3160.0
1401	3432.0
1402	2725.0
1403	2366.0
1404	2468.0
1405	2437.0
1406	2207.0
1407	2498.0
1408	2546.0
1409	2297.0
1410	2151.0
1411	2060.0
1412	2035.0
1413	2057.0
1414	2040.0
1415	2009.0
1416	1986.0
1417	1968.0
1418	1953.0
1419	1996.0
1420	1999.0
1421	2052.0
1422	2054.0
1423	2029.0
1424	1974.0
1425	1943.0
1426	1953.0
1427	2003.0
1428	2019.0
1429	2053.0
1430	2048.0
1431	1982.0
1432	1992.0
1433	1998.0
1434	2135.0
1435	2189.0
1436	2256.0
1437	2191.0
1438	2087.0
1439	2349.0
1440	2403.0
1441	2223.0
1442	2118.0
1443	2124.0
1444	2097.0
1445	2084.0
1446	2055.0
1447	2058.0
1448	2063.0
1449	2044.0
1450	2027.0
1451	2035.0
1452	2016.0
1453	1958.0
1454	1999.0
1455	2053.0
1456	2052.0
1457	1989.0
1458	1968.0
1459	2269.0
1460	2373.0
1461	2220.0
1462	2169.0
1463	2127.0
1464	2110.0
1465	2093.0
1466	2017.0
1467	2011.0
1468	1992.0
1469	2017.0
1470	2015.0
1471	2007.0
1472	2006.0
1473	2017.0
1474	2027.0
1475	2005.0
1476	1969.0
1477	1962.0
1478	1967.0
1479	1966.0
1480	1966.0
1481	2042.0
1482	2086.0
1483	2034.0
1484	2047.0
1485	2077.0
1486	2061.0
1487	2032.0
1488	2008.0
1489	2034.0
1490	2060.0
1491	2090.0
1492	2121.0
1493	2110.0
1494	2145.0
1495	2134.0
1496	2049.0
1497	2007.0
1498	1999.0
1499	2015.0
1500	1996.0
1501	1951.0
1502	2167.0
1503	2206.0
1504	2091.0
1505	2066.0
1506	2286.0
1507	2343.0
1508	2549.0
1509	2530.0
1510	2273.0
1511	2142.0
1512	2281.0
1513	2292.0
1514	2149.0
1515	2093.0
1516	2016.0
1517	2011.0
1518	2005.0
1519	2000.0
1520	2002.0
1521	2029.0
1522	2037.0
1523	2009.0
1524	1988.0
1525	1993.0
1526	2008.0
1527	2008.0
1528	2005.0
1529	1970.0
1530	1954.0
1531	1943.0
1532	2147.0
1533	2195.0
1534	2079.0
1535	2025.0
1536	1971.0
1537	1985.0
1538	2001.0
1539	1991.0
1540	1990.0
1541	2045.0
1542	2051.0
1543	2023.0
1544	1974.0
1545	1976.0
1546	1981.0
1547	1984.0
1548	1990.0
1549	1962.0
1550	1958.0
1551	1961.0
1552	1977.0
1553	1972.0
1554	1980.0
1555	1969.0
1556	1978.0
1557	2009.0
1558	2068.0
1559	2072.0
1560	2029.0
1561	1998.0
1562	1981.0
1563	1976.0
1564	1982.0
1565	1998.0
1566	1980.0
1567	1981.0
1568	1963.0
1569	1935.0
1570	1982.0
1571	2055.0
1572	2040.0
1573	2022.0
1574	2019.0
1575	1967.0
1576	1944.0
1577	2255.0
1578	2367.0
1579	2180.0
1580	2073.0
1581	2022.0
1582	1979.0
1583	1946.0
1584	1965.0
1585	2048.0
1586	2033.0
1587	1973.0
1588	1946.0
1589	1971.0
1590	2013.0
1591	2033.0
1592	2346.0
1593	2386.0
1594	2286.0
1595	2223.0
1596	2152.0
1597	2122.0
1598	2076.0
1599	2006.0
1600	1998.0
1601	1969.0
1602	1961.0
1603	1971.0
1604	1972.0
1605	1926.0
1606	1945.0
1607	1972.0
1608	1977.0
1609	2020.0
1610	1981.0
1611	1996.0
1612	1983.0
1613	1971.0
1614	1943.0
1615	1933.0
1616	2149.0
1617	2256.0
1618	2179.0
1619	2165.0
1620	2119.0
1621	2055.0
1622	2019.0
1623	1993.0
1624	1979.0
1625	1980.0
1626	1965.0
1627	1945.0
1628	1953.0
1629	1980.0
1630	1984.0
1631	2036.0
1632	2075.0
1633	2054.0
1634	2032.0
1635	2035.0
1636	1974.0
1637	1960.0
1638	2013.0
1639	2039.0
1640	2012.0
1641	2011.0
1642	1989.0
1643	2017.0
1644	2038.0
1645	2009.0
1646	2048.0
1647	2044.0
1648	2035.0
1649	2023.0
1650	2015.0
1651	2019.0
1652	2036.0
1653	1995.0
1654	1990.0
1655	1992.0
1656	2020.0
1657	2011.0
1658	1974.0
1659	1962.0
1660	1973.0
1661	1988.0
1662	1960.0
1663	1942.0
1664	1993.0
1665	2026.0
1666	2019.0
1667	2032.0
1668	2001.0
1669	1982.0
1670	1976.0
1671	1949.0
1672	1956.0
1673	1959.0
1674	2004.0
1675	2027.0
1676	2017.0
1677	1995.0
1678	1960.0
1679	1941.0
1680	1915.0
1681	1921.0
1682	1919.0
1683	1939.0
1684	1923.0
1685	1910.0
1686	1919.0
1687	1995.0
1688	1997.0
1689	1944.0
1690	1927.0
1691	1947.0
1692	2245.0
1693	2299.0
1694	2188.0
1695	2136.0
1696	2070.0
1697	1987.0
1698	1964.0
1699	1953.0
1700	1958.0
1701	1945.0
1702	1990.0
1703	1989.0
1704	1988.0
1705	2193.0
1706	2207.0
1707	2118.0
1708	2024.0
1709	1994.0
1710	1975.0
1711	1973.0
1712	1986.0
1713	1973.0
1714	1956.0
1715	2017.0
1716	2012.0
1717	2292.0
1718	2338.0
1719	2164.0
1720	2116.0
1721	2080.0
1722	2059.0
1723	2317.0
1724	2366.0
1725	2204.0
1726	2120.0
1727	2056.0
1728	2004.0
1729	1970.0
1730	1969.0
1731	2275.0
1732	2284.0
1733	2279.0
1734	2235.0
1735	2112.0
1736	2079.0
1737	2057.0
1738	2008.0
1739	1994.0
1740	1981.0
1741	1991.0
1742	1996.0
1743	1934.0
1744	1935.0
1745	1932.0
1746	1948.0
1747	1966.0
1748	1965.0
1749	1950.0
1750	1983.0
1751	1963.0
1752	2209.0
1753	2255.0
1754	2171.0
1755	2260.0
1756	2213.0
1757	2092.0
1758	1996.0
1759	2042.0
1760	2080.0
1761	2049.0
1762	2007.0
1763	1965.0
1764	1916.0
1765	1925.0
1766	1985.0
1767	2129.0
1768	2158.0
1769	2070.0
1770	2024.0
1771	1969.0
1772	1936.0
1773	1928.0
1774	1958.0
1775	1957.0
1776	1939.0
1777	1955.0
1778	2083.0
1779	2134.0
1780	2093.0
1781	2039.0
1782	2020.0
1783	2005.0
1784	2000.0
1785	2006.0
1786	1998.0
1787	1983.0
1788	1966.0
1789	1976.0
1790	2004.0
1791	1998.0
1792	2027.0
1793	2054.0
1794	2040.0
1795	2000.0
1796	2009.0
1797	2006.0
1798	2004.0
1799	1966.0
1800	1968.0
1801	1980.0
1802	1958.0
1803	1960.0
1804	1959.0
1805	1945.0
1806	1951.0
1807	1966.0
1808	1957.0
1809	1977.0
1810	1947.0
1811	1953.0
1812	2001.0
1813	2019.0
1814	1986.0
1815	1957.0
1816	1962.0
1817	1987.0
1818	2033.0
1819	2045.0
1820	2101.0
1821	2093.0
1822	2045.0
1823	1997.0
1824	1970.0
1825	1947.0
1826	1932.0
1827	2019.0
1828	2050.0
1829	2024.0
1830	1996.0
1831	1979.0
1832	1983.0
1833	1986.0
1834	2036.0
1835	2076.0
1836	2026.0
1837	2011.0
1838	1997.0
1839	2008.0
1840	2018.0
1841	1969.0
1842	1973.0
1843	1961.0
1844	2209.0
1845	2295.0
1846	2161.0
1847	2068.0
1848	2092.0
1849	2096.0
1850	2034.0
1851	2042.0
1852	2032.0
1853	2011.0
1854	2036.0
1855	2047.0
1856	1996.0
1857	1984.0
1858	1993.0
1859	1986.0
1860	2005.0
1861	2003.0
1862	1960.0
1863	1942.0
1864	2020.0
1865	2045.0
1866	2015.0
1867	1975.0
1868	1953.0
1869	2221.0
1870	2361.0
1871	2199.0
1872	2088.0
1873	2011.0
1874	1969.0
1875	1949.0
1876	1937.0
1877	1937.0
1878	1940.0
1879	1954.0
1880	1981.0
1881	2009.0
1882	2004.0
1883	1995.0
1884	1960.0
1885	1963.0
1886	1965.0
1887	1948.0
1888	1918.0
1889	1893.0
1890	2139.0
1891	2261.0
1892	2154.0
1893	2033.0
1894	1993.0
1895	2038.0
1896	2049.0
1897	2035.0
1898	2028.0
1899	1998.0
1900	3559.0
1901	3914.0
1902	2973.0
1903	2630.0
1904	2422.0
1905	2201.0
1906	2179.0
1907	2306.0
1908	2253.0
1909	2258.0
1910	2216.0
1911	2095.0
1912	2264.0
1913	2296.0
1914	2178.0
1915	2091.0
1916	2074.0
1917	2078.0
1918	2048.0
1919	1993.0
1920	2008.0
1921	1989.0
1922	1991.0
1923	2011.0
1924	1979.0
1925	1958.0
1926	1928.0
1927	1990.0
1928	2008.0
1929	1996.0
1930	1980.0
1931	1997.0
1932	1988.0
1933	2008.0
1934	1989.0
1935	1997.0
1936	2255.0
1937	2282.0
1938	2116.0
1939	2038.0
1940	2019.0
1941	2002.0
1942	2007.0
1943	1974.0
1944	1976.0
1945	1963.0
1946	2032.0
1947	2076.0
1948	2033.0
1949	1996.0
1950	1945.0
1951	1992.0
1952	2010.0
1953	2076.0
1954	2083.0
1955	2171.0
1956	2168.0
1957	2085.0
1958	2060.0
1959	2041.0
1960	1994.0
1961	1977.0
1962	2006.0
1963	2011.0
1964	1992.0
1965	1967.0
1966	1958.0
1967	1942.0
1968	1946.0
1969	1951.0
1970	1975.0
1971	1966.0
1972	1985.0
1973	1997.0
1974	1993.0
1975	1986.0
1976	2048.0
1977	2088.0
1978	2014.0
1979	1991.0
1980	1961.0
1981	1925.0
1982	1910.0
1983	1940.0
1984	1979.0
1985	1933.0
1986	1946.0
1987	1949.0
1988	1942.0
1989	1954.0
1990	1986.0
1991	2028.0
1992	2026.0
1993	2092.0
1994	2119.0
1995	2036.0
1996	1999.0
1997	1984.0
1998	1956.0
1999	1945.0
2000	1932.0
2001	1961.0
2002	2145.0
2003	2177.0
2004	2054.0
2005	1997.0
2006	1969.0
2007	1969.0
2008	1945.0
2009	1928.0
2010	1942.0
2011	1929.0
2012	1930.0
2013	1915.0
2014	1927.0
2015	1990.0
2016	2026.0
2017	2011.0
2018	1998.0
2019	1978.0
2020	1965.0
2021	1954.0
2022	2011.0
2023	2041.0
2024	2055.0
2025	2036.0
2026	2838.0
2027	3474.0
2028	3068.0
2029	2807.0
2030	2570.0
2031	2255.0
2032	2077.0
2033	2447.0
2034	2558.0
2035	2283.0
2036	2158.0
2037	2074.0
2038	2306.0
2039	2372.0
2040	2232.0
2041	2115.0
2042	2075.0
2043	2090.0
2044	2049.0
2045	2047.0
2046	2027.0
2047	2027.0
