================================================================================
RAMAN SPECTROMETER DEBUG LOG
Timestamp: 2026-01-19T15:53:34.571551
================================================================================

--- CONFIGURATION ---
Port: /dev/ttyUSB0
Baudrate: 9600
Integration time: 200 ms
Timeout: 10.0 s
Expected data points: 2048
Min data points: 2048

--- RAW DATA INFO ---
Total bytes received: 14370
Null bytes count: 1

--- RAW BYTES (first 500, hex) ---
61 0d 0a 41 43 4b 0d 0a 0d 0a 49 32 30 30 0d 0a 
41 43 4b 0d 0a 0d 0a 53 0d 0a 41 43 4b 0d 0a 30 
31 38 30 38 0d 0a 30 31 38 35 33 0d 0a 30 31 38 
34 37 0d 0a 30 31 38 33 36 0d 0a 30 31 38 32 31 
0d 0a 30 31 38 31 38 0d 0a 30 31 38 32 32 0d 0a 
30 31 38 31 37 0d 0a 30 31 38 33 32 0d 0a 30 31 
38 33 32 0d 0a 30 31 38 32 39 0d 0a 30 31 38 34 
31 0d 0a 30 31 38 35 33 0d 0a 30 31 38 32 35 0d 
0a 30 31 38 30 34 0d 0a 30 31 38 33 32 0d 0a 30 
31 38 33 31 0d 0a 30 31 38 32 34 0d 0a 30 31 38 
30 34 0d 0a 30 31 38 33 39 0d 0a 30 31 38 35 31 
0d 0a 30 31 38 32 30 0d 0a 30 31 37 39 32 0d 0a 
30 31 38 31 30 0d 0a 30 31 38 33 32 0d 0a 30 31 
38 35 34 0d 0a 30 31 38 36 36 0d 0a 30 31 38 34 
31 0d 0a 30 31 38 36 33 0d 0a 30 31 38 36 30 0d 
0a 30 31 38 37 37 0d 0a 30 31 38 38 35 0d 0a 30 
31 38 37 31 0d 0a 30 31 38 33 36 0d 0a 30 31 38 
31 35 0d 0a 30 31 38 32 33 0d 0a 30 31 38 32 39 
0d 0a 30 31 38 33 32 0d 0a 30 31 38 30 32 0d 0a 
30 31 38 33 33 0d 0a 30 31 38 34 34 0d 0a 30 31 
38 35 35 0d 0a 30 31 38 35 34 0d 0a 30 31 38 35 
30 0d 0a 30 31 39 30 37 0d 0a 30 31 39 30 37 0d 
0a 30 31 38 38 39 0d 0a 30 31 38 37 34 0d 0a 30 
31 38 34 37 0d 0a 30 31 38 34 36 0d 0a 30 31 38 
34 39 0d 0a 30 31 38 34 33 0d 0a 30 31 38 35 36 
0d 0a 30 31 38 34 36 0d 0a 30 31 38 32 35 0d 0a 
30 31 38 34 38 0d 0a 30 31 38 33 35 0d 0a 30 31 
38 35 33 0d 0a 30 31 38 37 31 0d 0a 30 31 38 38 
30 0d 0a 30 31 38 36 30 0d 0a 30 31 38 34 32 0d 
0a 30 31 38 34 35 0d 0a 30 31 38 33 34 0d 0a 30 
31 38 35 32 0d 0a 30 31 38 32 31 0d 0a 30 31 38 
37 35 0d 0a

--- RAW DATA AS STRING (first 1000 chars) ---
a
ACK

I200
ACK

S
ACK
01808
01853
01847
01836
01821
01818
01822
01817
01832
01832
01829
01841
01853
01825
01804
01832
01831
01824
01804
01839
01851
01820
01792
01810
01832
01854
01866
01841
01863
01860
01877
01885
01871
01836
01815
01823
01829
01832
01802
01833
01844
01855
01854
01850
01907
01907
01889
01874
01847
01846
01849
01843
01856
01846
01825
01848
01835
01853
01871
01880
01860
01842
01845
01834
01852
01821
01875
01897
01874
01838
01843
01847
01821
01826
01801
01820
01826
01840
01839
01830
01821
01798
01787
01785
02054
02128
01998
01915
01900
01896
01855
01823
01866
01910
01891
01862
01861
01855
01828
01829
01827
01823
01828
01824
01825
01831
01879
01866
01860
01844
01844
01853
01848
01835
01820
01816
01818
01844
01830
01804
01792
01788
01815
01811
01832
01850
01857
01866
01858
01844
01856
01874
01842
01836
01850
01857
01829
01824
018

--- PARSED VALUES ---
Total parsed values: 2048
Min value: 1776.0
Max value: 8789.0
Mean value: 2596.542
Saturated values (>=65535): 0
First 20 values: [1808.0, 1853.0, 1847.0, 1836.0, 1821.0, 1818.0, 1822.0, 1817.0, 1832.0, 1832.0, 1829.0, 1841.0, 1853.0, 1825.0, 1804.0, 1832.0, 1831.0, 1824.0, 1804.0, 1839.0]
Last 20 values: [1910.0, 1925.0, 1924.0, 1885.0, 1852.0, 1903.0, 1895.0, 1865.0, 1861.0, 1870.0, 1888.0, 1889.0, 1884.0, 1842.0, 1839.0, 1798.0, 1809.0, 1828.0, 1850.0, 1826.0]

--- FULL SPECTRUM DATA (one value per line) ---
0	1808.0
1	1853.0
2	1847.0
3	1836.0
4	1821.0
5	1818.0
6	1822.0
7	1817.0
8	1832.0
9	1832.0
10	1829.0
11	1841.0
12	1853.0
13	1825.0
14	1804.0
15	1832.0
16	1831.0
17	1824.0
18	1804.0
19	1839.0
20	1851.0
21	1820.0
22	1792.0
23	1810.0
24	1832.0
25	1854.0
26	1866.0
27	1841.0
28	1863.0
29	1860.0
30	1877.0
31	1885.0
32	1871.0
33	1836.0
34	1815.0
35	1823.0
36	1829.0
37	1832.0
38	1802.0
39	1833.0
40	1844.0
41	1855.0
42	1854.0
43	1850.0
44	1907.0
45	1907.0
46	1889.0
47	1874.0
48	1847.0
49	1846.0
50	1849.0
51	1843.0
52	1856.0
53	1846.0
54	1825.0
55	1848.0
56	1835.0
57	1853.0
58	1871.0
59	1880.0
60	1860.0
61	1842.0
62	1845.0
63	1834.0
64	1852.0
65	1821.0
66	1875.0
67	1897.0
68	1874.0
69	1838.0
70	1843.0
71	1847.0
72	1821.0
73	1826.0
74	1801.0
75	1820.0
76	1826.0
77	1840.0
78	1839.0
79	1830.0
80	1821.0
81	1798.0
82	1787.0
83	1785.0
84	2054.0
85	2128.0
86	1998.0
87	1915.0
88	1900.0
89	1896.0
90	1855.0
91	1823.0
92	1866.0
93	1910.0
94	1891.0
95	1862.0
96	1861.0
97	1855.0
98	1828.0
99	1829.0
100	1827.0
101	1823.0
102	1828.0
103	1824.0
104	1825.0
105	1831.0
106	1879.0
107	1866.0
108	1860.0
109	1844.0
110	1844.0
111	1853.0
112	1848.0
113	1835.0
114	1820.0
115	1816.0
116	1818.0
117	1844.0
118	1830.0
119	1804.0
120	1792.0
121	1788.0
122	1815.0
123	1811.0
124	1832.0
125	1850.0
126	1857.0
127	1866.0
128	1858.0
129	1844.0
130	1856.0
131	1874.0
132	1842.0
133	1836.0
134	1850.0
135	1857.0
136	1829.0
137	1824.0
138	1826.0
139	1822.0
140	1837.0
141	1927.0
142	1955.0
143	1872.0
144	1841.0
145	1837.0
146	1871.0
147	1886.0
148	1891.0
149	1856.0
150	1816.0
151	1821.0
152	1823.0
153	1805.0
154	1790.0
155	1824.0
156	1842.0
157	1837.0
158	1833.0
159	1823.0
160	1853.0
161	1832.0
162	1871.0
163	1899.0
164	1890.0
165	1862.0
166	1858.0
167	1846.0
168	1846.0
169	1835.0
170	1817.0
171	1862.0
172	1848.0
173	1834.0
174	1838.0
175	1837.0
176	1848.0
177	1836.0
178	1849.0
179	1824.0
180	1848.0
181	1865.0
182	1863.0
183	1841.0
184	1833.0
185	1827.0
186	1803.0
187	1804.0
188	1777.0
189	1837.0
190	1850.0
191	1846.0
192	1841.0
193	1844.0
194	1849.0
195	1877.0
196	1908.0
197	1903.0
198	1883.0
199	1840.0
200	1867.0
201	1847.0
202	1846.0
203	1816.0
204	1800.0
205	1848.0
206	1841.0
207	1846.0
208	1835.0
209	1841.0
210	1823.0
211	1839.0
212	1841.0
213	1846.0
214	1921.0
215	1927.0
216	1908.0
217	1905.0
218	1910.0
219	1893.0
220	1874.0
221	1866.0
222	1868.0
223	1849.0
224	1847.0
225	1844.0
226	1817.0
227	1833.0
228	1839.0
229	1859.0
230	1859.0
231	1855.0
232	1838.0
233	1872.0
234	1897.0
235	1851.0
236	1819.0
237	1804.0
238	1828.0
239	1834.0
240	1839.0
241	1898.0
242	1946.0
243	1934.0
244	1913.0
245	1882.0
246	1856.0
247	1896.0
248	1869.0
249	1855.0
250	1852.0
251	1860.0
252	1856.0
253	1883.0
254	1867.0
255	1838.0
256	1836.0
257	1808.0
258	1813.0
259	1825.0
260	1844.0
261	1839.0
262	1839.0
263	1851.0
264	1847.0
265	1886.0
266	1892.0
267	1878.0
268	1878.0
269	1902.0
270	1850.0
271	1808.0
272	1800.0
273	1806.0
274	1834.0
275	1826.0
276	1813.0
277	1809.0
278	1835.0
279	1842.0
280	1848.0
281	1848.0
282	1828.0
283	1825.0
284	1847.0
285	1840.0
286	1812.0
287	1854.0
288	1832.0
289	1834.0
290	1823.0
291	1828.0
292	1799.0
293	1791.0
294	1796.0
295	1786.0
296	1800.0
297	1802.0
298	1825.0
299	1818.0
300	1812.0
301	1836.0
302	1844.0
303	1834.0
304	1806.0
305	1804.0
306	1806.0
307	1819.0
308	1785.0
309	1909.0
310	1956.0
311	1908.0
312	1876.0
313	1840.0
314	1855.0
315	1834.0
316	1822.0
317	1806.0
318	1825.0
319	1833.0
320	1852.0
321	1850.0
322	1811.0
323	1830.0
324	1843.0
325	1865.0
326	1852.0
327	1846.0
328	1832.0
329	1856.0
330	1879.0
331	1883.0
332	1912.0
333	1859.0
334	1847.0
335	1856.0
336	1868.0
337	1869.0
338	1855.0
339	1863.0
340	1847.0
341	1852.0
342	1855.0
343	1870.0
344	1850.0
345	1848.0
346	1846.0
347	1849.0
348	1824.0
349	1808.0
350	1838.0
351	1838.0
352	1848.0
353	1843.0
354	1836.0
355	1816.0
356	1828.0
357	1843.0
358	1827.0
359	1851.0
360	1872.0
361	1872.0
362	1869.0
363	1882.0
364	1866.0
365	1856.0
366	1856.0
367	1831.0
368	1842.0
369	1841.0
370	1851.0
371	1831.0
372	1840.0
373	1830.0
374	1825.0
375	1816.0
376	1807.0
377	1808.0
378	1805.0
379	1807.0
380	1828.0
381	1821.0
382	1820.0
383	1815.0
384	1807.0
385	1816.0
386	1815.0
387	1836.0
388	1860.0
389	1836.0
390	1848.0
391	1879.0
392	1882.0
393	1834.0
394	1828.0
395	1824.0
396	1845.0
397	1847.0
398	1834.0
399	1829.0
400	1824.0
401	1828.0
402	1821.0
403	1833.0
404	1827.0
405	1819.0
406	1835.0
407	1830.0
408	1821.0
409	1821.0
410	1849.0
411	1832.0
412	1842.0
413	1840.0
414	1821.0
415	1817.0
416	1815.0
417	1816.0
418	1812.0
419	1827.0
420	1829.0
421	1840.0
422	1851.0
423	1856.0
424	1861.0
425	1856.0
426	1861.0
427	1855.0
428	1852.0
429	1833.0
430	1858.0
431	1860.0
432	1871.0
433	1860.0
434	1837.0
435	1827.0
436	1841.0
437	1836.0
438	1819.0
439	1835.0
440	1877.0
441	1887.0
442	1862.0
443	1857.0
444	1848.0
445	1869.0
446	1866.0
447	1858.0
448	1880.0
449	1876.0
450	1861.0
451	1829.0
452	1812.0
453	1814.0
454	1824.0
455	1824.0
456	1782.0
457	1784.0
458	1791.0
459	1831.0
460	1821.0
461	1823.0
462	1821.0
463	1840.0
464	1872.0
465	1853.0
466	1867.0
467	1854.0
468	1849.0
469	1830.0
470	1832.0
471	1817.0
472	1827.0
473	1828.0
474	1810.0
475	1820.0
476	1797.0
477	1840.0
478	1852.0
479	1877.0
480	1854.0
481	1851.0
482	1864.0
483	1844.0
484	1851.0
485	1849.0
486	1856.0
487	1864.0
488	1880.0
489	1875.0
490	1870.0
491	1831.0
492	1814.0
493	1826.0
494	1823.0
495	1864.0
496	1873.0
497	1880.0
498	1870.0
499	1860.0
500	1852.0
501	1846.0
502	1835.0
503	1824.0
504	1832.0
505	1844.0
506	1868.0
507	1862.0
508	1869.0
509	1847.0
510	1844.0
511	1852.0
512	1844.0
513	1829.0
514	1810.0
515	1837.0
516	1859.0
517	1867.0
518	1889.0
519	1903.0
520	1863.0
521	1864.0
522	1845.0
523	1833.0
524	1837.0
525	1847.0
526	1852.0
527	1851.0
528	1853.0
529	1839.0
530	1853.0
531	1823.0
532	1796.0
533	1784.0
534	1814.0
535	1855.0
536	1842.0
537	1825.0
538	1810.0
539	1827.0
540	1865.0
541	1849.0
542	1834.0
543	1825.0
544	1828.0
545	1817.0
546	1834.0
547	1841.0
548	1857.0
549	1853.0
550	1846.0
551	1844.0
552	1842.0
553	1845.0
554	1832.0
555	1833.0
556	1821.0
557	1840.0
558	1826.0
559	1824.0
560	1812.0
561	1828.0
562	1863.0
563	1847.0
564	1826.0
565	1828.0
566	1852.0
567	1840.0
568	1840.0
569	1862.0
570	1867.0
571	1869.0
572	1833.0
573	1848.0
574	1870.0
575	1871.0
576	1829.0
577	1807.0
578	1796.0
579	1798.0
580	1810.0
581	1798.0
582	1807.0
583	1815.0
584	1828.0
585	1823.0
586	1836.0
587	1845.0
588	1843.0
589	1842.0
590	1809.0
591	1815.0
592	1806.0
593	1818.0
594	1805.0
595	1832.0
596	1863.0
597	1882.0
598	1865.0
599	1823.0
600	1826.0
601	1820.0
602	1843.0
603	1838.0
604	1826.0
605	1824.0
606	1820.0
607	1816.0
608	1798.0
609	1838.0
610	1849.0
611	1836.0
612	1828.0
613	1828.0
614	1813.0
615	1815.0
616	1822.0
617	1804.0
618	1822.0
619	1823.0
620	1844.0
621	1831.0
622	1838.0
623	1806.0
624	1830.0
625	1825.0
626	1798.0
627	1826.0
628	1854.0
629	1852.0
630	1831.0
631	1851.0
632	1851.0
633	1866.0
634	1844.0
635	1834.0
636	1835.0
637	1832.0
638	1869.0
639	1864.0
640	1852.0
641	1855.0
642	1869.0
643	1902.0
644	1907.0
645	1870.0
646	1855.0
647	1831.0
648	1802.0
649	1816.0
650	1837.0
651	1840.0
652	1820.0
653	1830.0
654	1822.0
655	1829.0
656	1875.0
657	1860.0
658	1823.0
659	1807.0
660	1841.0
661	1822.0
662	1831.0
663	1833.0
664	1836.0
665	1829.0
666	1830.0
667	1855.0
668	1855.0
669	1837.0
670	1811.0
671	1790.0
672	1788.0
673	1795.0
674	1805.0
675	1822.0
676	1838.0
677	1847.0
678	1858.0
679	1852.0
680	1888.0
681	1892.0
682	1902.0
683	1889.0
684	1860.0
685	1821.0
686	1850.0
687	1865.0
688	1877.0
689	1877.0
690	1847.0
691	1841.0
692	1847.0
693	1872.0
694	1869.0
695	1862.0
696	1887.0
697	1838.0
698	1805.0
699	1813.0
700	1845.0
701	1830.0
702	1850.0
703	1855.0
704	1875.0
705	1904.0
706	1867.0
707	1871.0
708	1879.0
709	1881.0
710	1880.0
711	1897.0
712	1878.0
713	1845.0
714	1836.0
715	1822.0
716	1824.0
717	1839.0
718	1850.0
719	1826.0
720	1836.0
721	1825.0
722	1822.0
723	1829.0
724	1813.0
725	1857.0
726	1847.0
727	1825.0
728	1826.0
729	1837.0
730	1823.0
731	1848.0
732	1864.0
733	1848.0
734	1900.0
735	1899.0
736	1924.0
737	1913.0
738	1890.0
739	1875.0
740	1850.0
741	1830.0
742	1814.0
743	1824.0
744	1817.0
745	1829.0
746	1850.0
747	1903.0
748	1912.0
749	1886.0
750	1845.0
751	1846.0
752	1860.0
753	1839.0
754	1842.0
755	1826.0
756	1850.0
757	1860.0
758	1861.0
759	1841.0
760	1842.0
761	1823.0
762	1820.0
763	1824.0
764	1825.0
765	1836.0
766	1818.0
767	1811.0
768	1800.0
769	1825.0
770	1823.0
771	1816.0
772	1807.0
773	1823.0
774	1833.0
775	1823.0
776	1829.0
777	1836.0
778	1874.0
779	1860.0
780	1869.0
781	1871.0
782	1851.0
783	1866.0
784	1860.0
785	1868.0
786	1852.0
787	1875.0
788	1855.0
789	1831.0
790	1850.0
791	1862.0
792	1862.0
793	1861.0
794	1879.0
795	1865.0
796	1857.0
797	1841.0
798	1837.0
799	1873.0
800	1849.0
801	1830.0
802	1821.0
803	1815.0
804	1802.0
805	1820.0
806	1837.0
807	1853.0
808	1847.0
809	1836.0
810	1839.0
811	1841.0
812	1881.0
813	1898.0
814	1864.0
815	1829.0
816	1818.0
817	1806.0
818	1815.0
819	1849.0
820	1874.0
821	1896.0
822	1882.0
823	1883.0
824	1900.0
825	1912.0
826	1872.0
827	1850.0
828	1842.0
829	1856.0
830	1881.0
831	1863.0
832	1869.0
833	1875.0
834	1858.0
835	1850.0
836	1855.0
837	1845.0
838	1867.0
839	1901.0
840	1878.0
841	1888.0
842	1879.0
843	1855.0
844	1815.0
845	1831.0
846	1844.0
847	1845.0
848	1864.0
849	1844.0
850	1870.0
851	1885.0
852	1913.0
853	1892.0
854	1871.0
855	1964.0
856	1981.0
857	1921.0
858	1868.0
859	1873.0
860	1891.0
861	1896.0
862	1872.0
863	1866.0
864	1887.0
865	1897.0
866	1870.0
867	1847.0
868	1851.0
869	1842.0
870	1830.0
871	1833.0
872	1848.0
873	1853.0
874	1871.0
875	1863.0
876	1881.0
877	1896.0
878	1866.0
879	1872.0
880	1848.0
881	1859.0
882	1868.0
883	1854.0
884	1850.0
885	1878.0
886	1897.0
887	1909.0
888	1903.0
889	1889.0
890	1894.0
891	1893.0
892	1857.0
893	1844.0
894	1865.0
895	1842.0
896	1879.0
897	1912.0
898	1913.0
899	1913.0
900	1925.0
901	1938.0
902	1924.0
903	1956.0
904	1946.0
905	1920.0
906	1916.0
907	1894.0
908	1905.0
909	1873.0
910	1865.0
911	1867.0
912	1887.0
913	1859.0
914	1859.0
915	1869.0
916	1865.0
917	1983.0
918	2012.0
919	1966.0
920	1904.0
921	1887.0
922	1887.0
923	1874.0
924	1849.0
925	1857.0
926	1897.0
927	1879.0
928	1880.0
929	1837.0
930	1840.0
931	1871.0
932	1899.0
933	1892.0
934	1903.0
935	1925.0
936	1922.0
937	1936.0
938	1911.0
939	1903.0
940	1902.0
941	1897.0
942	1887.0
943	1894.0
944	1890.0
945	1886.0
946	1900.0
947	1885.0
948	1906.0
949	1918.0
950	1912.0
951	1890.0
952	1907.0
953	1914.0
954	1914.0
955	1914.0
956	1909.0
957	1942.0
958	1949.0
959	1917.0
960	1868.0
961	1861.0
962	1872.0
963	1891.0
964	1920.0
965	1892.0
966	1887.0
967	1888.0
968	1899.0
969	1890.0
970	1888.0
971	1889.0
972	1896.0
973	1893.0
974	1884.0
975	1908.0
976	1892.0
977	1891.0
978	1902.0
979	1917.0
980	1922.0
981	1906.0
982	1899.0
983	1958.0
984	2004.0
985	1947.0
986	1935.0
987	1953.0
988	1998.0
989	2017.0
990	2063.0
991	2059.0
992	2070.0
993	2102.0
994	2146.0
995	2242.0
996	2270.0
997	2282.0
998	2299.0
999	2374.0
1000	2428.0
1001	2482.0
1002	2569.0
1003	2676.0
1004	2783.0
1005	2860.0
1006	2960.0
1007	3075.0
1008	3201.0
1009	3295.0
1010	3407.0
1011	3506.0
1012	3583.0
1013	3693.0
1014	3803.0
1015	3906.0
1016	3975.0
1017	4091.0
1018	4159.0
1019	4153.0
1020	4166.0
1021	4244.0
1022	4287.0
1023	4329.0
1024	4420.0
1025	4486.0
1026	4536.0
1027	4581.0
1028	4643.0
1029	4704.0
1030	4797.0
1031	4853.0
1032	4827.0
1033	4885.0
1034	4995.0
1035	5045.0
1036	5067.0
1037	5112.0
1038	5151.0
1039	5159.0
1040	5191.0
1041	5288.0
1042	5342.0
1043	5405.0
1044	5442.0
1045	5419.0
1046	5454.0
1047	5511.0
1048	5564.0
1049	5573.0
1050	5584.0
1051	5644.0
1052	5677.0
1053	5730.0
1054	5758.0
1055	5830.0
1056	5851.0
1057	5869.0
1058	5936.0
1059	5969.0
1060	5956.0
1061	6020.0
1062	6109.0
1063	6082.0
1064	6134.0
1065	6242.0
1066	6306.0
1067	6323.0
1068	6418.0
1069	6527.0
1070	6606.0
1071	6656.0
1072	6644.0
1073	6650.0
1074	6635.0
1075	6666.0
1076	6704.0
1077	6746.0
1078	6803.0
1079	6881.0
1080	6986.0
1081	7055.0
1082	7114.0
1083	7163.0
1084	7167.0
1085	7121.0
1086	7192.0
1087	7253.0
1088	7332.0
1089	7377.0
1090	7387.0
1091	7375.0
1092	7342.0
1093	7330.0
1094	7328.0
1095	7365.0
1096	7392.0
1097	7475.0
1098	7561.0
1099	7597.0
1100	7682.0
1101	7865.0
1102	7920.0
1103	7833.0
1104	7728.0
1105	7669.0
1106	7713.0
1107	7726.0
1108	7752.0
1109	7806.0
1110	7883.0
1111	7878.0
1112	7817.0
1113	7844.0
1114	7851.0
1115	7874.0
1116	7876.0
1117	7853.0
1118	7886.0
1119	7919.0
1120	7927.0
1121	7939.0
1122	7969.0
1123	7965.0
1124	7957.0
1125	7984.0
1126	7982.0
1127	7964.0
1128	7994.0
1129	8018.0
1130	8051.0
1131	8108.0
1132	8123.0
1133	8122.0
1134	8107.0
1135	8117.0
1136	8113.0
1137	8137.0
1138	8141.0
1139	8123.0
1140	8150.0
1141	8266.0
1142	8281.0
1143	8289.0
1144	8363.0
1145	8414.0
1146	8457.0
1147	8503.0
1148	8479.0
1149	8429.0
1150	8469.0
1151	8458.0
1152	8411.0
1153	8554.0
1154	8679.0
1155	8717.0
1156	8789.0
1157	8762.0
1158	8714.0
1159	8744.0
1160	8724.0
1161	8726.0
1162	8767.0
1163	8716.0
1164	8697.0
1165	8632.0
1166	8554.0
1167	8563.0
1168	8598.0
1169	8575.0
1170	8459.0
1171	8406.0
1172	8396.0
1173	8444.0
1174	8517.0
1175	8508.0
1176	8503.0
1177	8536.0
1178	8563.0
1179	8588.0
1180	8648.0
1181	8648.0
1182	8708.0
1183	8747.0
1184	8721.0
1185	8696.0
1186	8717.0
1187	8675.0
1188	8639.0
1189	8659.0
1190	8626.0
1191	8561.0
1192	8538.0
1193	8581.0
1194	8601.0
1195	8646.0
1196	8684.0
1197	8645.0
1198	8626.0
1199	8630.0
1200	8666.0
1201	8641.0
1202	8615.0
1203	8545.0
1204	8485.0
1205	8511.0
1206	8551.0
1207	8558.0
1208	8608.0
1209	8627.0
1210	8604.0
1211	8658.0
1212	8677.0
1213	8654.0
1214	8615.0
1215	8573.0
1216	8597.0
1217	8549.0
1218	8570.0
1219	8578.0
1220	8609.0
1221	8652.0
1222	8668.0
1223	8722.0
1224	8709.0
1225	8698.0
1226	8711.0
1227	8779.0
1228	8770.0
1229	8720.0
1230	8670.0
1231	8686.0
1232	8652.0
1233	8586.0
1234	8620.0
1235	8602.0
1236	8645.0
1237	8661.0
1238	8638.0
1239	8610.0
1240	8664.0
1241	8699.0
1242	8696.0
1243	8671.0
1244	8663.0
1245	8704.0
1246	8677.0
1247	8650.0
1248	8648.0
1249	8682.0
1250	8744.0
1251	8735.0
1252	8764.0
1253	8741.0
1254	8726.0
1255	8704.0
1256	8690.0
1257	8683.0
1258	8645.0
1259	8533.0
1260	8384.0
1261	8243.0
1262	8120.0
1263	8012.0
1264	7847.0
1265	7640.0
1266	7475.0
1267	7324.0
1268	7086.0
1269	6873.0
1270	6677.0
1271	6452.0
1272	6204.0
1273	5958.0
1274	5689.0
1275	5427.0
1276	5211.0
1277	4962.0
1278	4725.0
1279	4439.0
1280	4185.0
1281	3919.0
1282	3666.0
1283	3442.0
1284	3249.0
1285	3083.0
1286	2902.0
1287	2752.0
1288	2602.0
1289	2462.0
1290	2333.0
1291	2194.0
1292	2109.0
1293	2034.0
1294	1996.0
1295	1952.0
1296	1931.0
1297	1890.0
1298	1872.0
1299	1847.0
1300	1855.0
1301	1861.0
1302	1844.0
1303	1867.0
1304	1857.0
1305	1855.0
1306	1850.0
1307	1838.0
1308	1840.0
1309	1839.0
1310	1833.0
1311	1821.0
1312	1831.0
1313	1829.0
1314	1836.0
1315	1860.0
1316	1897.0
1317	1868.0
1318	1872.0
1319	1868.0
1320	1851.0
1321	1842.0
1322	1815.0
1323	1840.0
1324	1864.0
1325	1864.0
1326	1837.0
1327	1829.0
1328	1826.0
1329	1839.0
1330	1857.0
1331	1844.0
1332	1836.0
1333	1816.0
1334	1829.0
1335	1798.0
1336	1801.0
1337	1810.0
1338	1811.0
1339	1864.0
1340	1882.0
1341	1884.0
1342	1847.0
1343	1848.0
1344	1875.0
1345	1909.0
1346	1914.0
1347	1882.0
1348	1864.0
1349	1832.0
1350	1820.0
1351	1825.0
1352	1864.0
1353	1857.0
1354	1864.0
1355	1838.0
1356	1836.0
1357	1887.0
1358	1857.0
1359	1841.0
1360	1856.0
1361	1866.0
1362	1837.0
1363	1810.0
1364	1797.0
1365	1817.0
1366	1827.0
1367	1845.0
1368	1887.0
1369	1884.0
1370	1870.0
1371	1840.0
1372	1816.0
1373	1805.0
1374	1824.0
1375	1834.0
1376	1816.0
1377	1810.0
1378	1811.0
1379	1818.0
1380	1785.0
1381	1800.0
1382	1798.0
1383	1789.0
1384	1789.0
1385	1799.0
1386	1821.0
1387	1819.0
1388	1833.0
1389	1818.0
1390	1811.0
1391	1825.0
1392	1831.0
1393	1811.0
1394	1812.0
1395	1836.0
1396	1840.0
1397	1850.0
1398	1848.0
1399	1832.0
1400	1970.0
1401	2022.0
1402	1922.0
1403	1880.0
1404	1869.0
1405	1884.0
1406	1838.0
1407	1972.0
1408	2016.0
1409	1904.0
1410	1853.0
1411	1848.0
1412	1849.0
1413	1852.0
1414	1851.0
1415	1860.0
1416	1855.0
1417	1864.0
1418	1856.0
1419	1877.0
1420	1845.0
1421	1837.0
1422	1818.0
1423	1813.0
1424	1802.0
1425	1797.0
1426	1810.0
1427	1827.0
1428	1810.0
1429	1800.0
1430	1830.0
1431	1833.0
1432	1851.0
1433	1848.0
1434	1813.0
1435	1830.0
1436	1861.0
1437	1853.0
1438	1826.0
1439	1876.0
1440	1882.0
1441	1883.0
1442	1862.0
1443	1847.0
1444	1845.0
1445	1814.0
1446	1813.0
1447	1831.0
1448	1866.0
1449	1863.0
1450	1857.0
1451	1813.0
1452	1798.0
1453	1820.0
1454	1844.0
1455	1841.0
1456	1820.0
1457	1842.0
1458	1858.0
1459	1872.0
1460	1845.0
1461	1847.0
1462	1866.0
1463	1857.0
1464	1872.0
1465	1849.0
1466	1842.0
1467	1840.0
1468	1824.0
1469	1784.0
1470	1794.0
1471	1827.0
1472	1846.0
1473	1841.0
1474	1826.0
1475	1825.0
1476	1823.0
1477	1827.0
1478	1820.0
1479	1829.0
1480	1827.0
1481	1799.0
1482	1818.0
1483	1809.0
1484	1818.0
1485	1820.0
1486	1834.0
1487	1844.0
1488	1851.0
1489	1808.0
1490	1813.0
1491	1825.0
1492	1824.0
1493	1848.0
1494	1846.0
1495	1844.0
1496	1837.0
1497	1831.0
1498	1828.0
1499	1818.0
1500	1807.0
1501	1809.0
1502	1854.0
1503	1848.0
1504	1838.0
1505	1820.0
1506	1869.0
1507	1864.0
1508	1884.0
1509	1876.0
1510	1853.0
1511	1842.0
1512	1827.0
1513	1853.0
1514	1844.0
1515	1838.0
1516	1826.0
1517	1842.0
1518	1850.0
1519	1832.0
1520	1834.0
1521	1837.0
1522	1851.0
1523	1860.0
1524	1836.0
1525	1805.0
1526	1818.0
1527	1828.0
1528	1831.0
1529	1812.0
1530	1795.0
1531	1791.0
1532	1817.0
1533	1808.0
1534	1801.0
1535	1837.0
1536	1839.0
1537	1833.0
1538	1828.0
1539	1841.0
1540	1835.0
1541	1834.0
1542	1856.0
1543	1839.0
1544	1844.0
1545	1836.0
1546	1850.0
1547	1836.0
1548	1838.0
1549	1825.0
1550	1834.0
1551	1860.0
1552	1865.0
1553	1875.0
1554	1852.0
1555	1840.0
1556	1824.0
1557	1842.0
1558	1836.0
1559	1811.0
1560	1835.0
1561	1842.0
1562	1873.0
1563	1844.0
1564	1828.0
1565	1835.0
1566	1849.0
1567	1821.0
1568	1814.0
1569	1834.0
1570	1870.0
1571	1901.0
1572	1894.0
1573	1885.0
1574	1873.0
1575	1845.0
1576	1791.0
1577	1820.0
1578	1866.0
1579	1883.0
1580	1874.0
1581	1846.0
1582	1852.0
1583	1851.0
1584	1848.0
1585	1815.0
1586	1816.0
1587	1813.0
1588	1793.0
1589	1780.0
1590	1799.0
1591	1829.0
1592	1858.0
1593	1878.0
1594	1874.0
1595	1864.0
1596	1848.0
1597	1833.0
1598	1843.0
1599	1826.0
1600	1847.0
1601	1836.0
1602	1841.0
1603	1820.0
1604	1825.0
1605	1827.0
1606	1828.0
1607	1838.0
1608	1847.0
1609	1865.0
1610	1858.0
1611	1868.0
1612	1850.0
1613	1841.0
1614	1839.0
1615	1844.0
1616	1880.0
1617	1885.0
1618	1886.0
1619	1879.0
1620	1875.0
1621	1869.0
1622	1869.0
1623	1828.0
1624	1846.0
1625	1861.0
1626	1860.0
1627	1850.0
1628	1829.0
1629	1842.0
1630	1830.0
1631	1822.0
1632	1845.0
1633	1869.0
1634	1850.0
1635	1826.0
1636	1832.0
1637	1830.0
1638	1849.0
1639	1838.0
1640	1820.0
1641	1812.0
1642	1824.0
1643	1839.0
1644	1859.0
1645	1861.0
1646	1869.0
1647	1864.0
1648	1856.0
1649	1887.0
1650	1890.0
1651	1887.0
1652	1862.0
1653	1857.0
1654	1818.0
1655	1842.0
1656	1864.0
1657	1854.0
1658	1847.0
1659	1846.0
1660	1855.0
1661	1812.0
1662	1793.0
1663	1791.0
1664	1820.0
1665	1836.0
1666	1828.0
1667	1816.0
1668	1833.0
1669	1871.0
1670	1848.0
1671	1833.0
1672	1825.0
1673	1850.0
1674	1857.0
1675	1823.0
1676	1798.0
1677	1794.0
1678	1821.0
1679	1796.0
1680	1798.0
1681	1794.0
1682	1817.0
1683	1850.0
1684	1846.0
1685	1845.0
1686	1835.0
1687	1866.0
1688	1858.0
1689	1836.0
1690	1848.0
1691	1848.0
1692	1869.0
1693	1882.0
1694	1876.0
1695	1872.0
1696	1857.0
1697	1810.0
1698	1814.0
1699	1828.0
1700	1847.0
1701	1838.0
1702	1831.0
1703	1840.0
1704	1834.0
1705	1865.0
1706	1867.0
1707	1869.0
1708	1860.0
1709	1870.0
1710	1852.0
1711	1848.0
1712	1842.0
1713	1858.0
1714	1861.0
1715	1860.0
1716	1883.0
1717	1889.0
1718	1877.0
1719	1838.0
1720	1831.0
1721	1859.0
1722	1866.0
1723	1889.0
1724	1855.0
1725	1857.0
1726	1873.0
1727	1885.0
1728	1858.0
1729	1853.0
1730	1838.0
1731	1875.0
1732	1899.0
1733	1876.0
1734	1889.0
1735	1867.0
1736	1860.0
1737	1853.0
1738	1855.0
1739	1835.0
1740	1834.0
1741	1839.0
1742	1810.0
1743	1796.0
1744	1783.0
1745	1826.0
1746	1829.0
1747	1828.0
1748	1802.0
1749	1810.0
1750	1826.0
1751	1820.0
1752	1862.0
1753	1865.0
1754	1854.0
1755	1856.0
1756	1867.0
1757	1853.0
1758	1812.0
1759	1828.0
1760	1835.0
1761	1823.0
1762	1818.0
1763	1804.0
1764	1791.0
1765	1814.0
1766	1834.0
1767	1869.0
1768	1867.0
1769	1826.0
1770	1807.0
1771	1801.0
1772	1815.0
1773	1809.0
1774	1780.0
1775	1779.0
1776	1796.0
1777	1790.0
1778	1824.0
1779	1840.0
1780	1848.0
1781	1847.0
1782	1836.0
1783	1840.0
1784	1836.0
1785	1840.0
1786	1837.0
1787	1863.0
1788	1845.0
1789	1837.0
1790	1827.0
1791	1799.0
1792	1818.0
1793	1838.0
1794	1846.0
1795	1840.0
1796	1845.0
1797	1821.0
1798	1794.0
1799	1776.0
1800	1797.0
1801	1834.0
1802	1816.0
1803	1823.0
1804	1818.0
1805	1844.0
1806	1844.0
1807	1856.0
1808	1850.0
1809	1851.0
1810	1857.0
1811	1866.0
1812	1890.0
1813	1843.0
1814	1824.0
1815	1809.0
1816	1831.0
1817	1822.0
1818	1830.0
1819	1812.0
1820	1783.0
1821	1812.0
1822	1834.0
1823	1863.0
1824	1853.0
1825	1851.0
1826	1852.0
1827	1844.0
1828	1828.0
1829	1808.0
1830	1827.0
1831	1820.0
1832	1832.0
1833	1817.0
1834	1831.0
1835	1840.0
1836	1844.0
1837	1839.0
1838	1852.0
1839	1866.0
1840	1840.0
1841	1829.0
1842	1824.0
1843	1841.0
1844	1877.0
1845	1869.0
1846	1839.0
1847	1857.0
1848	1858.0
1849	1837.0
1850	1847.0
1851	1820.0
1852	1828.0
1853	1806.0
1854	1808.0
1855	1786.0
1856	1788.0
1857	1824.0
1858	1797.0
1859	1805.0
1860	1828.0
1861	1858.0
1862	1853.0
1863	1855.0
1864	1857.0
1865	1867.0
1866	1838.0
1867	1805.0
1868	1817.0
1869	1844.0
1870	1870.0
1871	1846.0
1872	1840.0
1873	1817.0
1874	1809.0
1875	1816.0
1876	1802.0
1877	1844.0
1878	1841.0
1879	1828.0
1880	1830.0
1881	1860.0
1882	1855.0
1883	1858.0
1884	1878.0
1885	1855.0
1886	1837.0
1887	1815.0
1888	1833.0
1889	1848.0
1890	1871.0
1891	1871.0
1892	1869.0
1893	1867.0
1894	1852.0
1895	1824.0
1896	1824.0
1897	1846.0
1898	1847.0
1899	1872.0
1900	2000.0
1901	2019.0
1902	1913.0
1903	1885.0
1904	1851.0
1905	1850.0
1906	1878.0
1907	1884.0
1908	1872.0
1909	1870.0
1910	1856.0
1911	1849.0
1912	1872.0
1913	1871.0
1914	1862.0
1915	1866.0
1916	1862.0
1917	1857.0
1918	1854.0
1919	1855.0
1920	1835.0
1921	1848.0
1922	1827.0
1923	1818.0
1924	1824.0
1925	1824.0
1926	1831.0
1927	1850.0
1928	1851.0
1929	1819.0
1930	1824.0
1931	1828.0
1932	1839.0
1933	1866.0
1934	1871.0
1935	1872.0
1936	1870.0
1937	1887.0
1938	1862.0
1939	1850.0
1940	1826.0
1941	1820.0
1942	1832.0
1943	1847.0
1944	1858.0
1945	1848.0
1946	1862.0
1947	1837.0
1948	1833.0
1949	1831.0
1950	1832.0
1951	1842.0
1952	1834.0
1953	1844.0
1954	1846.0
1955	1864.0
1956	1841.0
1957	1847.0
1958	1860.0
1959	1886.0
1960	1874.0
1961	1842.0
1962	1849.0
1963	1853.0
1964	1850.0
1965	1809.0
1966	1795.0
1967	1796.0
1968	1826.0
1969	1845.0
1970	1860.0
1971	1857.0
1972	1860.0
1973	1872.0
1974	1843.0
1975	1833.0
1976	1837.0
1977	1829.0
1978	1826.0
1979	1820.0
1980	1834.0
1981	1828.0
1982	1847.0
1983	1841.0
1984	1870.0
1985	1868.0
1986	1867.0
1987	1838.0
1988	1826.0
1989	1798.0
1990	1812.0
1991	1813.0
1992	1807.0
1993	1847.0
1994	1863.0
1995	1859.0
1996	1819.0
1997	1815.0
1998	1828.0
1999	1842.0
2000	1836.0
2001	1789.0
2002	1837.0
2003	1855.0
2004	1889.0
2005	1893.0
2006	1887.0
2007	1854.0
2008	1866.0
2009	1854.0
2010	1840.0
2011	1857.0
2012	1836.0
2013	1834.0
2014	1825.0
2015	1853.0
2016	1846.0
2017	1838.0
2018	1850.0
2019	1854.0
2020	1868.0
2021	1854.0
2022	1869.0
2023	1856.0
2024	1839.0
2025	1812.0
2026	1879.0
2027	1936.0
2028	1910.0
2029	1925.0
2030	1924.0
2031	1885.0
2032	1852.0
2033	1903.0
2034	1895.0
2035	1865.0
2036	1861.0
2037	1870.0
2038	1888.0
2039	1889.0
2040	1884.0
2041	1842.0
2042	1839.0
2043	1798.0
2044	1809.0
2045	1828.0
2046	1850.0
2047	1826.0
