================================================================================
RAMAN SPECTROMETER DEBUG LOG
Timestamp: 2026-01-19T14:38:14.380889
================================================================================

--- CONFIGURATION ---
Port: /dev/ttyUSB0
Baudrate: 9600
Integration time: 2000 ms
Timeout: 10.0 s
Expected data points: 2048
Min data points: 100

--- RAW DATA INFO ---
Total bytes received: 10956
Null bytes count: 0

--- RAW BYTES (first 500, hex) ---
61 0d 0a 41 43 4b 0d 0a 0d 0a 49 32 30 30 30 0d 
0a 41 43 4b 0d 0a 0d 0a 53 0d 0a 41 43 4b 0d 0a 
30 32 31 35 34 0d 0a 30 32 31 37 32 0d 0a 30 32 
31 38 33 0d 0a 30 32 31 38 33 0d 0a 30 32 31 39 
35 0d 0a 30 32 32 31 36 0d 0a 30 32 31 38 35 0d 
0a 30 32 31 35 36 0d 0a 30 32 31 36 33 0d 0a 30 
32 32 30 30 0d 0a 30 32 31 39 31 0d 0a 30 32 32 
30 30 0d 0a 30 32 31 38 33 0d 0a 30 32 31 39 33 
0d 0a 30 32 31 38 31 0d 0a 30 32 32 38 33 0d 0a 
30 32 33 32 34 0d 0a 30 32 32 39 33 0d 0a 30 32 
32 32 31 0d 0a 30 32 31 39 35 0d 0a 30 32 31 38 
39 0d 0a 30 32 32 31 35 0d 0a 30 32 32 37 34 0d 
0a 30 32 33 30 36 0d 0a 30 32 32 37 32 0d 0a 30 
32 32 35 35 0d 0a 30 32 32 35 39 0d 0a 30 32 32 
34 36 0d 0a 30 32 32 34 37 0d 0a 30 32 32 33 35 
0d 0a 30 32 33 34 38 0d 0a 30 32 33 37 36 0d 0a 
30 32 33 30 32 0d 0a 30 32 32 37 31 0d 0a 30 32 
32 37 32 0d 0a 30 32 32 34 32 0d 0a 30 32 32 30 
34 0d 0a 30 32 31 35 39 0d 0a 30 32 31 38 30 0d 
0a 30 32 32 31 35 0d 0a 30 32 32 34 34 0d 0a 30 
32 32 32 38 0d 0a 30 32 32 31 33 0d 0a 30 32 32 
33 34 0d 0a 30 32 34 32 36 0d 0a 30 32 34 33 39 
0d 0a 30 32 33 35 31 0d 0a 30 32 32 39 37 0d 0a 
30 32 32 36 37 0d 0a 30 32 32 33 34 0d 0a 30 32 
31 39 35 0d 0a 30 32 31 39 36 0d 0a 30 32 32 31 
32 0d 0a 30 32 32 33 31 0d 0a 30 32 32 33 31 0d 
0a 30 32 32 33 33 0d 0a 30 32 32 31 33 0d 0a 30 
32 33 33 31 0d 0a 30 32 33 34 38 0d 0a 30 32 32 
38 35 0d 0a 30 32 32 34 35 0d 0a 30 32 32 31 32 
0d 0a 30 32 31 39 30 0d 0a 30 32 32 31 31 0d 0a 
30 32 32 31 31 0d 0a 30 32 32 31 39 0d 0a 30 32 
32 36 35 0d

--- RAW DATA AS STRING (first 1000 chars) ---
a
ACK

I2000
ACK

S
ACK
02154
02172
02183
02183
02195
02216
02185
02156
02163
02200
02191
02200
02183
02193
02181
02283
02324
02293
02221
02195
02189
02215
02274
02306
02272
02255
02259
02246
02247
02235
02348
02376
02302
02271
02272
02242
02204
02159
02180
02215
02244
02228
02213
02234
02426
02439
02351
02297
02267
02234
02195
02196
02212
02231
02231
02233
02213
02331
02348
02285
02245
02212
02190
02211
02211
02219
02265
02274
02237
02240
02243
02236
02213
02205
02224
02213
02189
02167
02179
02206
02205
02157
02164
02168
03080
03290
02772
02492
02356
02280
02246
02230
02358
02351
02264
02252
02243
02202
02173
02208
02220
02204
02206
02229
02211
02191
02178
02194
02220
02253
02213
02217
02232
02223
02188
02208
02167
02160
02169
02202
02218
02226
02242
02253
02267
02255
02245
02221
02204
02206
02213
02180
02201
02242
02257
02204
02209
02230
02

--- PARSED VALUES ---
Total parsed values: 1560
Min value: 2127.0
Max value: 12687.0
Mean value: 3718.897
First 20 values: [2154.0, 2172.0, 2183.0, 2183.0, 2195.0, 2216.0, 2185.0, 2156.0, 2163.0, 2200.0, 2191.0, 2200.0, 2183.0, 2193.0, 2181.0, 2283.0, 2324.0, 2293.0, 2221.0, 2195.0]
Last 20 values: [2167.0, 2184.0, 2219.0, 2200.0, 2197.0, 2212.0, 2225.0, 2223.0, 2212.0, 2215.0, 2196.0, 2222.0, 2219.0, 2230.0, 2226.0, 2189.0, 2183.0, 2240.0, 2256.0, 2263.0]

--- FULL SPECTRUM DATA (one value per line) ---
0	2154.0
1	2172.0
2	2183.0
3	2183.0
4	2195.0
5	2216.0
6	2185.0
7	2156.0
8	2163.0
9	2200.0
10	2191.0
11	2200.0
12	2183.0
13	2193.0
14	2181.0
15	2283.0
16	2324.0
17	2293.0
18	2221.0
19	2195.0
20	2189.0
21	2215.0
22	2274.0
23	2306.0
24	2272.0
25	2255.0
26	2259.0
27	2246.0
28	2247.0
29	2235.0
30	2348.0
31	2376.0
32	2302.0
33	2271.0
34	2272.0
35	2242.0
36	2204.0
37	2159.0
38	2180.0
39	2215.0
40	2244.0
41	2228.0
42	2213.0
43	2234.0
44	2426.0
45	2439.0
46	2351.0
47	2297.0
48	2267.0
49	2234.0
50	2195.0
51	2196.0
52	2212.0
53	2231.0
54	2231.0
55	2233.0
56	2213.0
57	2331.0
58	2348.0
59	2285.0
60	2245.0
61	2212.0
62	2190.0
63	2211.0
64	2211.0
65	2219.0
66	2265.0
67	2274.0
68	2237.0
69	2240.0
70	2243.0
71	2236.0
72	2213.0
73	2205.0
74	2224.0
75	2213.0
76	2189.0
77	2167.0
78	2179.0
79	2206.0
80	2205.0
81	2157.0
82	2164.0
83	2168.0
84	3080.0
85	3290.0
86	2772.0
87	2492.0
88	2356.0
89	2280.0
90	2246.0
91	2230.0
92	2358.0
93	2351.0
94	2264.0
95	2252.0
96	2243.0
97	2202.0
98	2173.0
99	2208.0
100	2220.0
101	2204.0
102	2206.0
103	2229.0
104	2211.0
105	2191.0
106	2178.0
107	2194.0
108	2220.0
109	2253.0
110	2213.0
111	2217.0
112	2232.0
113	2223.0
114	2188.0
115	2208.0
116	2167.0
117	2160.0
118	2169.0
119	2202.0
120	2218.0
121	2226.0
122	2242.0
123	2253.0
124	2267.0
125	2255.0
126	2245.0
127	2221.0
128	2204.0
129	2206.0
130	2213.0
131	2180.0
132	2201.0
133	2242.0
134	2257.0
135	2204.0
136	2209.0
137	2230.0
138	2216.0
139	2209.0
140	2205.0
141	2567.0
142	2664.0
143	2438.0
144	2324.0
145	2237.0
146	2253.0
147	2265.0
148	2265.0
149	2308.0
150	2266.0
151	2232.0
152	2220.0
153	2227.0
154	2221.0
155	2230.0
156	2212.0
157	2236.0
158	2268.0
159	2243.0
160	2198.0
161	2201.0
162	2276.0
163	2291.0
164	2262.0
165	2255.0
166	2231.0
167	2251.0
168	2244.0
169	2199.0
170	2197.0
171	2224.0
172	2266.0
173	2223.0
174	2204.0
175	2203.0
176	2215.0
177	2187.0
178	2210.0
179	2222.0
180	2228.0
181	2207.0
182	2214.0
183	2180.0
184	2170.0
185	2148.0
186	2155.0
187	2175.0
188	2203.0
189	2312.0
190	2346.0
191	2289.0
192	2250.0
193	2220.0
194	2229.0
195	2278.0
196	2300.0
197	2289.0
198	2253.0
199	2232.0
200	2206.0
201	2224.0
202	2231.0
203	2200.0
204	2166.0
205	2189.0
206	2176.0
207	2195.0
208	2207.0
209	2189.0
210	2153.0
211	2186.0
212	2207.0
213	2291.0
214	2481.0
215	2472.0
216	2342.0
217	2282.0
218	2244.0
219	2241.0
220	2232.0
221	2224.0
222	2214.0
223	2192.0
224	2224.0
225	2239.0
226	2241.0
227	2230.0
228	2221.0
229	2204.0
230	2217.0
231	2206.0
232	2198.0
233	2393.0
234	2451.0
235	2328.0
236	2280.0
237	2251.0
238	2300.0
239	2289.0
240	2238.0
241	2518.0
242	2594.0
243	2520.0
244	2432.0
245	2316.0
246	2276.0
247	2404.0
248	2400.0
249	2333.0
250	2274.0
251	2274.0
252	2263.0
253	2260.0
254	2229.0
255	2235.0
256	2249.0
257	2252.0
258	2247.0
259	2243.0
260	2224.0
261	2240.0
262	2231.0
263	2238.0
264	2232.0
265	2415.0
266	2458.0
267	2369.0
268	2317.0
269	2258.0
270	2234.0
271	2224.0
272	2222.0
273	2181.0
274	2194.0
275	2188.0
276	2196.0
277	2211.0
278	2214.0
279	2194.0
280	2216.0
281	2196.0
282	2197.0
283	2172.0
284	2183.0
285	2187.0
286	2208.0
287	2225.0
288	2216.0
289	2214.0
290	2192.0
291	2212.0
292	2233.0
293	2239.0
294	2222.0
295	2218.0
296	2234.0
297	2236.0
298	2175.0
299	2177.0
300	2213.0
301	2224.0
302	2180.0
303	2192.0
304	2199.0
305	2225.0
306	2222.0
307	2200.0
308	2174.0
309	2284.0
310	2352.0
311	2323.0
312	2286.0
313	2250.0
314	2310.0
315	2318.0
316	2289.0
317	2254.0
318	2244.0
319	2234.0
320	2232.0
321	2216.0
322	2215.0
323	2182.0
324	2209.0
325	2222.0
326	2250.0
327	2213.0
328	2187.0
329	2312.0
330	2366.0
331	2369.0
332	2341.0
333	2277.0
334	2258.0
335	2342.0
336	2386.0
337	2296.0
338	2243.0
339	2216.0
340	2172.0
341	2196.0
342	2204.0
343	2237.0
344	2224.0
345	2214.0
346	2236.0
347	2283.0
348	2284.0
349	2254.0
350	2245.0
351	2249.0
352	2208.0
353	2204.0
354	2214.0
355	2229.0
356	2231.0
357	2221.0
358	2178.0
359	2198.0
360	2206.0
361	2216.0
362	2208.0
363	2195.0
364	2223.0
365	2240.0
366	2243.0
367	2226.0
368	2211.0
369	2202.0
370	2221.0
371	2241.0
372	2240.0
373	2211.0
374	2232.0
375	2249.0
376	2285.0
377	2302.0
378	2293.0
379	2266.0
380	2270.0
381	2265.0
382	2240.0
383	2223.0
384	2242.0
385	2254.0
386	2258.0
387	2253.0
388	2264.0
389	2239.0
390	2184.0
391	2324.0
392	2347.0
393	2261.0
394	2215.0
395	2194.0
396	2202.0
397	2248.0
398	2225.0
399	2228.0
400	2216.0
401	2217.0
402	2202.0
403	2214.0
404	2304.0
405	2318.0
406	2250.0
407	2240.0
408	2222.0
409	2214.0
410	2210.0
411	2209.0
412	2201.0
413	2225.0
414	2230.0
415	2187.0
416	2200.0
417	2188.0
418	2213.0
419	2260.0
420	2263.0
421	2273.0
422	2359.0
423	2320.0
424	2220.0
425	2176.0
426	2196.0
427	2190.0
428	2216.0
429	2215.0
430	2228.0
431	2227.0
432	2229.0
433	2199.0
434	2182.0
435	2178.0
436	2244.0
437	2302.0
438	2287.0
439	2289.0
440	2405.0
441	2431.0
442	2351.0
443	2301.0
444	2240.0
445	2356.0
446	2375.0
447	2303.0
448	2269.0
449	2263.0
450	2228.0
451	2217.0
452	2215.0
453	2237.0
454	2221.0
455	2231.0
456	2221.0
457	2200.0
458	2186.0
459	2225.0
460	2241.0
461	2263.0
462	2291.0
463	2260.0
464	2223.0
465	2189.0
466	2225.0
467	2218.0
468	2186.0
469	2171.0
470	2173.0
471	2182.0
472	2213.0
473	2198.0
474	2280.0
475	2319.0
476	2273.0
477	2233.0
478	2281.0
479	2330.0
480	2303.0
481	2252.0
482	2220.0
483	2192.0
484	2173.0
485	2188.0
486	2196.0
487	2202.0
488	2150.0
489	2171.0
490	2186.0
491	2194.0
492	2222.0
493	2255.0
494	2238.0
495	2206.0
496	2203.0
497	2219.0
498	2199.0
499	2204.0
500	2213.0
501	2230.0
502	2222.0
503	2244.0
504	2254.0
505	2260.0
506	2239.0
507	2226.0
508	2223.0
509	2204.0
510	2186.0
511	2190.0
512	2246.0
513	2252.0
514	2237.0
515	2168.0
516	2167.0
517	2228.0
518	2364.0
519	2377.0
520	2315.0
521	2284.0
522	2262.0
523	2232.0
524	2225.0
525	2220.0
526	2250.0
527	2221.0
528	2199.0
529	2215.0
530	2224.0
531	2197.0
532	2189.0
533	2218.0
534	2227.0
535	2237.0
536	2215.0
537	2204.0
538	2197.0
539	2203.0
540	2186.0
541	2205.0
542	2200.0
543	2216.0
544	2231.0
545	2234.0
546	2228.0
547	2210.0
548	2215.0
549	2212.0
550	2252.0
551	2277.0
552	2267.0
553	2260.0
554	2240.0
555	2229.0
556	2211.0
557	2220.0
558	2239.0
559	2237.0
560	2224.0
561	2205.0
562	2232.0
563	2222.0
564	2233.0
565	2220.0
566	2253.0
567	2254.0
568	2261.0
569	2240.0
570	2231.0
571	2220.0
572	2210.0
573	2225.0
574	2252.0
575	2225.0
576	2201.0
577	2181.0
578	2167.0
579	2172.0
580	2180.0
581	2194.0
582	2198.0
583	2205.0
584	2196.0
585	2218.0
586	2216.0
587	2224.0
588	2240.0
589	2246.0
590	2213.0
591	2252.0
592	2276.0
593	2258.0
594	2209.0
595	2183.0
596	2273.0
597	2355.0
598	2293.0
599	2251.0
600	2243.0
601	2221.0
602	2170.0
603	2137.0
604	2127.0
605	2192.0
606	2201.0
607	2162.0
608	2205.0
609	2375.0
610	2411.0
611	2298.0
612	2252.0
613	2259.0
614	2262.0
615	2224.0
616	2234.0
617	2234.0
618	2228.0
619	2199.0
620	2239.0
621	2236.0
622	2200.0
623	2173.0
624	2217.0
625	2210.0
626	2168.0
627	2160.0
628	2188.0
629	2195.0
630	2208.0
631	2199.0
632	2172.0
633	2219.0
634	2220.0
635	2218.0
636	2192.0
637	2184.0
638	2690.0
639	2845.0
640	2544.0
641	2390.0
642	2289.0
643	2361.0
644	2349.0
645	2282.0
646	2241.0
647	2206.0
648	2189.0
649	2199.0
650	2199.0
651	2217.0
652	2239.0
653	2243.0
654	2234.0
655	2252.0
656	2244.0
657	2192.0
658	2205.0
659	2236.0
660	2254.0
661	2231.0
662	2268.0
663	2271.0
664	2248.0
665	2222.0
666	2224.0
667	2229.0
668	2254.0
669	2246.0
670	2237.0
671	2198.0
672	2238.0
673	2260.0
674	2246.0
675	2242.0
676	2228.0
677	2209.0
678	2220.0
679	2228.0
680	2244.0
681	2278.0
682	2245.0
683	2251.0
684	2266.0
685	2237.0
686	2213.0
687	2207.0
688	2331.0
689	2342.0
690	2228.0
691	2217.0
692	2214.0
693	2252.0
694	2248.0
695	2220.0
696	2206.0
697	2200.0
698	2181.0
699	2226.0
700	2231.0
701	2232.0
702	2239.0
703	2243.0
704	2260.0
705	2250.0
706	2225.0
707	2185.0
708	2220.0
709	2225.0
710	2306.0
711	2314.0
712	2275.0
713	2234.0
714	2210.0
715	2188.0
716	2183.0
717	2260.0
718	2294.0
719	2270.0
720	2266.0
721	2259.0
722	2252.0
723	2247.0
724	2260.0
725	2351.0
726	2373.0
727	2319.0
728	2266.0
729	2239.0
730	2244.0
731	2225.0
732	2179.0
733	2216.0
734	2300.0
735	2328.0
736	2433.0
737	2479.0
738	2410.0
739	2342.0
740	2276.0
741	2239.0
742	2209.0
743	2207.0
744	2171.0
745	2182.0
746	2208.0
747	2354.0
748	2379.0
749	2304.0
750	2268.0
751	2249.0
752	2284.0
753	2285.0
754	2242.0
755	2214.0
756	2234.0
757	2327.0
758	2349.0
759	2270.0
760	2238.0
761	2213.0
762	2234.0
763	2243.0
764	2252.0
765	2211.0
766	2191.0
767	2185.0
768	2200.0
769	2193.0
770	2205.0
771	2199.0
772	2192.0
773	2229.0
774	2234.0
775	2220.0
776	2204.0
777	2219.0
778	2220.0
779	2206.0
780	2216.0
781	2255.0
782	2258.0
783	2274.0
784	2256.0
785	2224.0
786	2196.0
787	2216.0
788	2197.0
789	2198.0
790	2217.0
791	2231.0
792	2214.0
793	2236.0
794	2217.0
795	2220.0
796	2213.0
797	2191.0
798	2189.0
799	2254.0
800	2316.0
801	2280.0
802	2272.0
803	2248.0
804	2223.0
805	2214.0
806	2239.0
807	2245.0
808	2257.0
809	2214.0
810	2197.0
811	2197.0
812	2312.0
813	2351.0
814	2310.0
815	2261.0
816	2256.0
817	2249.0
818	2260.0
819	2282.0
820	2300.0
821	2301.0
822	2302.0
823	2292.0
824	2244.0
825	2242.0
826	2243.0
827	2285.0
828	2278.0
829	2262.0
830	2245.0
831	2243.0
832	2248.0
833	2295.0
834	2272.0
835	2235.0
836	2221.0
837	2240.0
838	2247.0
839	2233.0
840	2206.0
841	2233.0
842	2219.0
843	2243.0
844	2250.0
845	2258.0
846	2278.0
847	2296.0
848	2275.0
849	2264.0
850	2285.0
851	2267.0
852	2370.0
853	2380.0
854	2309.0
855	2628.0
856	2686.0
857	2474.0
858	2393.0
859	2348.0
860	2327.0
861	2285.0
862	2314.0
863	2310.0
864	2280.0
865	2253.0
866	2266.0
867	2254.0
868	2250.0
869	2235.0
870	2241.0
871	2300.0
872	2316.0
873	2286.0
874	2260.0
875	2295.0
876	2295.0
877	2301.0
878	2288.0
879	2295.0
880	2307.0
881	2324.0
882	2294.0
883	2252.0
884	2245.0
885	2255.0
886	2244.0
887	2260.0
888	2261.0
889	2256.0
890	2256.0
891	2264.0
892	2269.0
893	2273.0
894	2269.0
895	2250.0
896	2226.0
897	2242.0
898	2252.0
899	2266.0
900	2297.0
901	2276.0
902	2278.0
903	2337.0
904	2349.0
905	2312.0
906	2342.0
907	2327.0
908	2397.0
909	2411.0
910	2374.0
911	2310.0
912	2314.0
913	2301.0
914	2283.0
915	2248.0
916	2244.0
917	2610.0
918	2705.0
919	2524.0
920	2393.0
921	2313.0
922	2277.0
923	2260.0
924	2223.0
925	2234.0
926	2248.0
927	2270.0
928	2253.0
929	2258.0
930	2279.0
931	2287.0
932	2276.0
933	2273.0
934	2312.0
935	2348.0
936	2312.0
937	2317.0
938	2377.0
939	2362.0
940	2301.0
941	2280.0
942	2270.0
943	2280.0
944	2275.0
945	2275.0
946	2276.0
947	2284.0
948	2321.0
949	2303.0
950	2326.0
951	2329.0
952	2313.0
953	2280.0
954	2274.0
955	2302.0
956	2324.0
957	2289.0
958	2273.0
959	2283.0
960	2318.0
961	2279.0
962	2316.0
963	2324.0
964	2318.0
965	2315.0
966	2328.0
967	2348.0
968	2341.0
969	2336.0
970	2316.0
971	2322.0
972	2322.0
973	2382.0
974	2365.0
975	2352.0
976	2356.0
977	2364.0
978	2351.0
979	2333.0
980	2302.0
981	2309.0
982	2308.0
983	2680.0
984	2758.0
985	2578.0
986	2510.0
987	2504.0
988	2482.0
989	2492.0
990	2550.0
991	2568.0
992	2608.0
993	2683.0
994	2727.0
995	2849.0
996	2945.0
997	2976.0
998	3054.0
999	3082.0
1000	3155.0
1001	3265.0
1002	3381.0
1003	3500.0
1004	3633.0
1005	3758.0
1006	3917.0
1007	4076.0
1008	4252.0
1009	4406.0
1010	4574.0
1011	4721.0
1012	4871.0
1013	5069.0
1014	5270.0
1015	5454.0
1016	5589.0
1017	5716.0
1018	5797.0
1019	5945.0
1020	6121.0
1021	6252.0
1022	6370.0
1023	6512.0
1024	6614.0
1025	6754.0
1026	6890.0
1027	7009.0
1028	7089.0
1029	7160.0
1030	7144.0
1031	7218.0
1032	7296.0
1033	7390.0
1034	7484.0
1035	7501.0
1036	7530.0
1037	7576.0
1038	7695.0
1039	7876.0
1040	7980.0
1041	8150.0
1042	8248.0
1043	8177.0
1044	8137.0
1045	8149.0
1046	8150.0
1047	8420.0
1048	8563.0
1049	8470.0
1050	8446.0
1051	8496.0
1052	8536.0
1053	8431.0
1054	8418.0
1055	8466.0
1056	8530.0
1057	8578.0
1058	8649.0
1059	8727.0
1060	8846.0
1061	8942.0
1062	9136.0
1063	9209.0
1064	9159.0
1065	9222.0
1066	9265.0
1067	9303.0
1068	9352.0
1069	9437.0
1070	9596.0
1071	9675.0
1072	9608.0
1073	9620.0
1074	9614.0
1075	9661.0
1076	9681.0
1077	9696.0
1078	9702.0
1079	9834.0
1080	9940.0
1081	9998.0
1082	9988.0
1083	10048.0
1084	10146.0
1085	10279.0
1086	10321.0
1087	10347.0
1088	10424.0
1089	10457.0
1090	10543.0
1091	10572.0
1092	10495.0
1093	10398.0
1094	10462.0
1095	10479.0
1096	10437.0
1097	10484.0
1098	10586.0
1099	10704.0
1100	10767.0
1101	11111.0
1102	11156.0
1103	10943.0
1104	10918.0
1105	10861.0
1106	10941.0
1107	11054.0
1108	11075.0
1109	11123.0
1110	11292.0
1111	11331.0
1112	11326.0
1113	11325.0
1114	11336.0
1115	11350.0
1116	11301.0
1117	11255.0
1118	11247.0
1119	11376.0
1120	11422.0
1121	11431.0
1122	11511.0
1123	11464.0
1124	11344.0
1125	11324.0
1126	11269.0
1127	11319.0
1128	11296.0
1129	11308.0
1130	11350.0
1131	11431.0
1132	11513.0
1133	11529.0
1134	11501.0
1135	11542.0
1136	11581.0
1137	11551.0
1138	11536.0
1139	11558.0
1140	11565.0
1141	11779.0
1142	11882.0
1143	11839.0
1144	11840.0
1145	11764.0
1146	11822.0
1147	11885.0
1148	11956.0
1149	11935.0
1150	11993.0
1151	11980.0
1152	11985.0
1153	12020.0
1154	12041.0
1155	12125.0
1156	12140.0
1157	12060.0
1158	11979.0
1159	11888.0
1160	11838.0
1161	11832.0
1162	11866.0
1163	11939.0
1164	11959.0
1165	11959.0
1166	11961.0
1167	12043.0
1168	12080.0
1169	11961.0
1170	11931.0
1171	11964.0
1172	11957.0
1173	11972.0
1174	12107.0
1175	12177.0
1176	12173.0
1177	12224.0
1178	12166.0
1179	12116.0
1180	12180.0
1181	12319.0
1182	12393.0
1183	12421.0
1184	12349.0
1185	12327.0
1186	12359.0
1187	12294.0
1188	12164.0
1189	11930.0
1190	11781.0
1191	11596.0
1192	11489.0
1193	11411.0
1194	11398.0
1195	11406.0
1196	11479.0
1197	11593.0
1198	11706.0
1199	11766.0
1200	11844.0
1201	11761.0
1202	11760.0
1203	11720.0
1204	11636.0
1205	11655.0
1206	11688.0
1207	11738.0
1208	11921.0
1209	12050.0
1210	12026.0
1211	11982.0
1212	11984.0
1213	12070.0
1214	12140.0
1215	12164.0
1216	12181.0
1217	12240.0
1218	12242.0
1219	12243.0
1220	12247.0
1221	12282.0
1222	12322.0
1223	12351.0
1224	12294.0
1225	12334.0
1226	12407.0
1227	12463.0
1228	12440.0
1229	12401.0
1230	12431.0
1231	12622.0
1232	12687.0
1233	12559.0
1234	12473.0
1235	12405.0
1236	12306.0
1237	12282.0
1238	12269.0
1239	12323.0
1240	12321.0
1241	12226.0
1242	12371.0
1243	12494.0
1244	12484.0
1245	12491.0
1246	12500.0
1247	12494.0
1248	12543.0
1249	12609.0
1250	12627.0
1251	12578.0
1252	12641.0
1253	12560.0
1254	12501.0
1255	12482.0
1256	12401.0
1257	12285.0
1258	12212.0
1259	12141.0
1260	11913.0
1261	11696.0
1262	11456.0
1263	11167.0
1264	10813.0
1265	10441.0
1266	10131.0
1267	9876.0
1268	9511.0
1269	9138.0
1270	8844.0
1271	8608.0
1272	8419.0
1273	8137.0
1274	7771.0
1275	7423.0
1276	7190.0
1277	6909.0
1278	6494.0
1279	6141.0
1280	5781.0
1281	5420.0
1282	5126.0
1283	4818.0
1284	4535.0
1285	4257.0
1286	4061.0
1287	3831.0
1288	3570.0
1289	3342.0
1290	3149.0
1291	2944.0
1292	2780.0
1293	2634.0
1294	2598.0
1295	2510.0
1296	2368.0
1297	2253.0
1298	2237.0
1299	2231.0
1300	2236.0
1301	2234.0
1302	2238.0
1303	2227.0
1304	2215.0
1305	2222.0
1306	2240.0
1307	2252.0
1308	2211.0
1309	2227.0
1310	2230.0
1311	2201.0
1312	2182.0
1313	2211.0
1314	2225.0
1315	2289.0
1316	2284.0
1317	2239.0
1318	2217.0
1319	2213.0
1320	2188.0
1321	2206.0
1322	2206.0
1323	2240.0
1324	2259.0
1325	2235.0
1326	2228.0
1327	2221.0
1328	2236.0
1329	2234.0
1330	2269.0
1331	2295.0
1332	2286.0
1333	2250.0
1334	2255.0
1335	2254.0
1336	2261.0
1337	2225.0
1338	2221.0
1339	2402.0
1340	2493.0
1341	2374.0
1342	2327.0
1343	2310.0
1344	2308.0
1345	2266.0
1346	2298.0
1347	2299.0
1348	2249.0
1349	2218.0
1350	2191.0
1351	2221.0
1352	2255.0
1353	2247.0
1354	2241.0
1355	2245.0
1356	2244.0
1357	2369.0
1358	2354.0
1359	2292.0
1360	2397.0
1361	2422.0
1362	2299.0
1363	2252.0
1364	2294.0
1365	2326.0
1366	2270.0
1367	2300.0
1368	2293.0
1369	2235.0
1370	2230.0
1371	2242.0
1372	2246.0
1373	2228.0
1374	2188.0
1375	2198.0
1376	2237.0
1377	2257.0
1378	2247.0
1379	2228.0
1380	2229.0
1381	2239.0
1382	2255.0
1383	2231.0
1384	2192.0
1385	2180.0
1386	2206.0
1387	2177.0
1388	2168.0
1389	2161.0
1390	2166.0
1391	2170.0
1392	2194.0
1393	2192.0
1394	2195.0
1395	2195.0
1396	2219.0
1397	2222.0
1398	2214.0
1399	2198.0
1400	2626.0
1401	2768.0
1402	2505.0
1403	2344.0
1404	2390.0
1405	2372.0
1406	2276.0
1407	2870.0
1408	2995.0
1409	2650.0
1410	2452.0
1411	2363.0
1412	2264.0
1413	2238.0
1414	2213.0
1415	2194.0
1416	2177.0
1417	2210.0
1418	2233.0
1419	2224.0
1420	2192.0
1421	2203.0
1422	2195.0
1423	2200.0
1424	2220.0
1425	2189.0
1426	2198.0
1427	2194.0
1428	2203.0
1429	2216.0
1430	2222.0
1431	2216.0
1432	2221.0
1433	2191.0
1434	2289.0
1435	2314.0
1436	2315.0
1437	2278.0
1438	2223.0
1439	2329.0
1440	2377.0
1441	2310.0
1442	2287.0
1443	2275.0
1444	2264.0
1445	2235.0
1446	2225.0
1447	2224.0
1448	2227.0
1449	2216.0
1450	2179.0
1451	2179.0
1452	2182.0
1453	2196.0
1454	2206.0
1455	2231.0
1456	2226.0
1457	2224.0
1458	2196.0
1459	2329.0
1460	2364.0
1461	2302.0
1462	2279.0
1463	2266.0
1464	2265.0
1465	2239.0
1466	2209.0
1467	2225.0
1468	2207.0
1469	2206.0
1470	2215.0
1471	2210.0
1472	2214.0
1473	2222.0
1474	2215.0
1475	2194.0
1476	2210.0
1477	2218.0
1478	2249.0
1479	2237.0
1480	2224.0
1481	2242.0
1482	2232.0
1483	2188.0
1484	2192.0
1485	2235.0
1486	2259.0
1487	2245.0
1488	2237.0
1489	2205.0
1490	2227.0
1491	2227.0
1492	2227.0
1493	2237.0
1494	2240.0
1495	2236.0
1496	2213.0
1497	2214.0
1498	2192.0
1499	2199.0
1500	2189.0
1501	2207.0
1502	2288.0
1503	2311.0
1504	2236.0
1505	2236.0
1506	2324.0
1507	2362.0
1508	2459.0
1509	2449.0
1510	2325.0
1511	2269.0
1512	2310.0
1513	2332.0
1514	2281.0
1515	2243.0
1516	2212.0
1517	2214.0
1518	2187.0
1519	2160.0
1520	2141.0
1521	2142.0
1522	2192.0
1523	2206.0
1524	2203.0
1525	2189.0
1526	2204.0
1527	2191.0
1528	2204.0
1529	2183.0
1530	2183.0
1531	2190.0
1532	2308.0
1533	2326.0
1534	2289.0
1535	2255.0
1536	2241.0
1537	2220.0
1538	2191.0
1539	2185.0
1540	2167.0
1541	2184.0
1542	2219.0
1543	2200.0
1544	2197.0
1545	2212.0
1546	2225.0
1547	2223.0
1548	2212.0
1549	2215.0
1550	2196.0
1551	2222.0
1552	2219.0
1553	2230.0
1554	2226.0
1555	2189.0
1556	2183.0
1557	2240.0
1558	2256.0
1559	2263.0
