================================================================================
RAMAN SPECTROMETER DEBUG LOG
Timestamp: 2026-01-17T14:42:52.603468
================================================================================

--- CONFIGURATION ---
Port: /dev/ttyUSB0
Baudrate: 9600
Integration time: 200 ms
Timeout: 5.0 s
Expected data points: 2048
Min data points: 100

--- RAW DATA INFO ---
Total bytes received: 5295
Null bytes count: 0

--- RAW BYTES (first 500, hex) ---
61 0d 0a 41 43 4b 0d 0a 0d 0a 49 32 30 30 0d 0a 
41 43 4b 0d 0a 0d 0a 53 0d 0a 41 43 4b 0d 0a 30 
32 30 33 33 0d 0a 30 32 30 39 33 0d 0a 30 32 30 
36 39 0d 0a 30 32 30 33 34 0d 0a 30 32 30 32 30 
0d 0a 30 32 30 32 37 0d 0a 30 32 30 31 32 0d 0a 
30 32 30 31 38 0d 0a 30 31 39 39 39 0d 0a 30 32 
30 30 32 0d 0a 30 32 30 31 36 0d 0a 30 31 39 39 
34 0d 0a 30 31 39 39 39 0d 0a 30 31 39 39 37 0d 
0a 30 32 30 32 31 0d 0a 30 32 30 35 31 0d 0a 30 
32 30 37 34 0d 0a 30 32 30 36 30 0d 0a 30 32 30 
32 33 0d 0a 30 32 30 33 35 0d 0a 30 32 30 33 33 
0d 0a 30 32 30 30 37 0d 0a 30 32 30 30 39 0d 0a 
30 32 30 33 34 0d 0a 30 31 39 39 33 0d 0a 30 32 
30 30 36 0d 0a 30 32 30 33 34 0d 0a 30 32 30 33 
34 0d 0a 30 32 30 31 31 0d 0a 30 32 30 33 35 0d 
0a 30 32 30 36 31 0d 0a 30 32 30 35 36 0d 0a 30 
32 30 34 30 0d 0a 30 32 30 31 31 0d 0a 30 32 30 
32 33 0d 0a 30 32 30 32 36 0d 0a 30 32 30 33 30 
0d 0a 30 32 30 31 36 0d 0a 30 32 30 33 36 0d 0a 
30 32 30 35 32 0d 0a 30 32 30 34 31 0d 0a 30 32 
30 33 35 0d 0a 30 32 30 35 31 0d 0a 30 32 30 33 
35 0d 0a 30 32 31 30 32 0d 0a 30 32 31 32 30 0d 
0a 30 32 30 39 36 0d 0a 30 32 30 38 31 0d 0a 30 
32 30 35 38 0d 0a 30 32 30 35 36 0d 0a 30 32 30 
30 39 0d 0a 30 31 39 38 38 0d 0a 30 31 39 38 38 
0d 0a 30 31 39 39 39 0d 0a 30 32 30 32 32 0d 0a 
30 32 30 31 34 0d 0a 30 32 30 35 35 0d 0a 30 32 
30 38 36 0d 0a 30 32 30 38 36 0d 0a 30 32 30 33 
35 0d 0a 30 32 30 33 37 0d 0a 30 32 30 33 37 0d 
0a 30 32 30 34 33 0d 0a 30 32 30 31 31 0d 0a 30 
32 30 30 35 0d 0a 30 32 30 31 32 0d 0a 30 32 30 
32 32 0d 0a

--- RAW DATA AS STRING (first 1000 chars) ---
a
ACK

I200
ACK

S
ACK
02033
02093
02069
02034
02020
02027
02012
02018
01999
02002
02016
01994
01999
01997
02021
02051
02074
02060
02023
02035
02033
02007
02009
02034
01993
02006
02034
02034
02011
02035
02061
02056
02040
02011
02023
02026
02030
02016
02036
02052
02041
02035
02051
02035
02102
02120
02096
02081
02058
02056
02009
01988
01988
01999
02022
02014
02055
02086
02086
02035
02037
02037
02043
02011
02005
02012
02022
02028
02034
02050
02030
02038
02030
02041
02038
02053
02031
02047
02043
02029
02008
01982
01987
02017
02315
02348
02176
02087
02071
02047
02016
02021
02069
02082
02021
02024
02008
01998
01993
02005
02028
02039
02021
02010
01994
02009
02021
02031
02061
02041
02011
01994
02023
02008
02018
02030
02038
02054
02046
02033
02007
02028
02039
02061
02040
02015
02000
01995
02027
02021
01999
02004
02001
02004
02001
02001
02005
02001
020

--- PARSED VALUES ---
Total parsed values: 752
Min value: 1957.0
Max value: 2348.0
Mean value: 2028.251
First 20 values: [2033.0, 2093.0, 2069.0, 2034.0, 2020.0, 2027.0, 2012.0, 2018.0, 1999.0, 2002.0, 2016.0, 1994.0, 1999.0, 1997.0, 2021.0, 2051.0, 2074.0, 2060.0, 2023.0, 2035.0]
Last 20 values: [2006.0, 2028.0, 2080.0, 2070.0, 2057.0, 2025.0, 2011.0, 2021.0, 2036.0, 2011.0, 2008.0, 2015.0, 2023.0, 2020.0, 1989.0, 2022.0, 2003.0, 2018.0, 2041.0, 2034.0]

--- FULL SPECTRUM DATA (one value per line) ---
0	2033.0
1	2093.0
2	2069.0
3	2034.0
4	2020.0
5	2027.0
6	2012.0
7	2018.0
8	1999.0
9	2002.0
10	2016.0
11	1994.0
12	1999.0
13	1997.0
14	2021.0
15	2051.0
16	2074.0
17	2060.0
18	2023.0
19	2035.0
20	2033.0
21	2007.0
22	2009.0
23	2034.0
24	1993.0
25	2006.0
26	2034.0
27	2034.0
28	2011.0
29	2035.0
30	2061.0
31	2056.0
32	2040.0
33	2011.0
34	2023.0
35	2026.0
36	2030.0
37	2016.0
38	2036.0
39	2052.0
40	2041.0
41	2035.0
42	2051.0
43	2035.0
44	2102.0
45	2120.0
46	2096.0
47	2081.0
48	2058.0
49	2056.0
50	2009.0
51	1988.0
52	1988.0
53	1999.0
54	2022.0
55	2014.0
56	2055.0
57	2086.0
58	2086.0
59	2035.0
60	2037.0
61	2037.0
62	2043.0
63	2011.0
64	2005.0
65	2012.0
66	2022.0
67	2028.0
68	2034.0
69	2050.0
70	2030.0
71	2038.0
72	2030.0
73	2041.0
74	2038.0
75	2053.0
76	2031.0
77	2047.0
78	2043.0
79	2029.0
80	2008.0
81	1982.0
82	1987.0
83	2017.0
84	2315.0
85	2348.0
86	2176.0
87	2087.0
88	2071.0
89	2047.0
90	2016.0
91	2021.0
92	2069.0
93	2082.0
94	2021.0
95	2024.0
96	2008.0
97	1998.0
98	1993.0
99	2005.0
100	2028.0
101	2039.0
102	2021.0
103	2010.0
104	1994.0
105	2009.0
106	2021.0
107	2031.0
108	2061.0
109	2041.0
110	2011.0
111	1994.0
112	2023.0
113	2008.0
114	2018.0
115	2030.0
116	2038.0
117	2054.0
118	2046.0
119	2033.0
120	2007.0
121	2028.0
122	2039.0
123	2061.0
124	2040.0
125	2015.0
126	2000.0
127	1995.0
128	2027.0
129	2021.0
130	1999.0
131	2004.0
132	2001.0
133	2004.0
134	2001.0
135	2001.0
136	2005.0
137	2001.0
138	2018.0
139	2033.0
140	2010.0
141	2064.0
142	2076.0
143	2043.0
144	2027.0
145	2017.0
146	2011.0
147	2058.0
148	2074.0
149	2100.0
150	2092.0
151	2074.0
152	2047.0
153	2021.0
154	2006.0
155	1998.0
156	2026.0
157	2004.0
158	2013.0
159	2014.0
160	2024.0
161	1993.0
162	1993.0
163	2021.0
164	2013.0
165	2021.0
166	2028.0
167	2042.0
168	2045.0
169	2049.0
170	2018.0
171	2040.0
172	2024.0
173	2034.0
174	2014.0
175	1983.0
176	2013.0
177	2043.0
178	2037.0
179	2052.0
180	2051.0
181	1997.0
182	1981.0
183	2004.0
184	2046.0
185	2011.0
186	2016.0
187	2017.0
188	2037.0
189	2047.0
190	2038.0
191	2058.0
192	2038.0
193	2022.0
194	1981.0
195	1997.0
196	2010.0
197	1995.0
198	1986.0
199	1996.0
200	2030.0
201	2043.0
202	2048.0
203	2030.0
204	1997.0
205	1994.0
206	2006.0
207	2006.0
208	2018.0
209	2036.0
210	2050.0
211	2048.0
212	2032.0
213	2027.0
214	2072.0
215	2084.0
216	2045.0
217	2027.0
218	2013.0
219	2032.0
220	2005.0
221	2007.0
222	2018.0
223	1993.0
224	1986.0
225	1985.0
226	2014.0
227	2030.0
228	2040.0
229	2005.0
230	1991.0
231	2009.0
232	2043.0
233	2081.0
234	2084.0
235	2048.0
236	2036.0
237	2046.0
238	2045.0
239	2043.0
240	2013.0
241	2062.0
242	2073.0
243	2090.0
244	2069.0
245	2040.0
246	2024.0
247	2043.0
248	2027.0
249	2013.0
250	2033.0
251	2023.0
252	2054.0
253	2043.0
254	2045.0
255	2018.0
256	2003.0
257	2010.0
258	2021.0
259	2014.0
260	1993.0
261	1990.0
262	1989.0
263	2015.0
264	2012.0
265	2064.0
266	2064.0
267	2025.0
268	2004.0
269	2028.0
270	2036.0
271	2040.0
272	2027.0
273	2013.0
274	2002.0
275	2013.0
276	2034.0
277	2028.0
278	2031.0
279	2015.0
280	2036.0
281	2019.0
282	2037.0
283	2025.0
284	2013.0
285	2018.0
286	2022.0
287	2042.0
288	2026.0
289	2013.0
290	2009.0
291	2025.0
292	2010.0
293	2005.0
294	2027.0
295	2029.0
296	2016.0
297	2010.0
298	2012.0
299	2043.0
300	2034.0
301	2018.0
302	1999.0
303	1973.0
304	1966.0
305	1981.0
306	2015.0
307	1998.0
308	1993.0
309	2120.0
310	2162.0
311	2121.0
312	2062.0
313	2058.0
314	2054.0
315	2047.0
316	2019.0
317	2040.0
318	2030.0
319	2035.0
320	2040.0
321	2002.0
322	2012.0
323	2034.0
324	2046.0
325	2040.0
326	2024.0
327	1981.0
328	1962.0
329	2014.0
330	2075.0
331	2094.0
332	2089.0
333	2047.0
334	2016.0
335	2034.0
336	2040.0
337	2037.0
338	2026.0
339	2039.0
340	2035.0
341	2045.0
342	2037.0
343	2034.0
344	2027.0
345	2023.0
346	2039.0
347	2025.0
348	2028.0
349	2006.0
350	2018.0
351	2000.0
352	2014.0
353	2037.0
354	2047.0
355	2022.0
356	1994.0
357	2010.0
358	2011.0
359	2025.0
360	2041.0
361	2052.0
362	2029.0
363	2036.0
364	2028.0
365	2044.0
366	2042.0
367	2035.0
368	2039.0
369	2019.0
370	2014.0
371	2022.0
372	2022.0
373	2003.0
374	2029.0
375	2030.0
376	2019.0
377	1986.0
378	1991.0
379	2016.0
380	2040.0
381	2043.0
382	2016.0
383	2022.0
384	2012.0
385	2046.0
386	2026.0
387	2014.0
388	2031.0
389	2045.0
390	2030.0
391	2050.0
392	2055.0
393	2061.0
394	2044.0
395	2016.0
396	2001.0
397	1996.0
398	2011.0
399	2028.0
400	2009.0
401	1977.0
402	1993.0
403	2005.0
404	2031.0
405	2024.0
406	1998.0
407	2005.0
408	1984.0
409	1995.0
410	2029.0
411	2061.0
412	2067.0
413	2054.0
414	2028.0
415	2028.0
416	2031.0
417	2035.0
418	2056.0
419	2073.0
420	2071.0
421	2048.0
422	2049.0
423	2045.0
424	2032.0
425	2005.0
426	2024.0
427	2028.0
428	2033.0
429	2036.0
430	2032.0
431	2027.0
432	2016.0
433	2032.0
434	2013.0
435	2032.0
436	2041.0
437	2063.0
438	2032.0
439	2012.0
440	2049.0
441	2070.0
442	2082.0
443	2056.0
444	2052.0
445	2052.0
446	2059.0
447	2028.0
448	2013.0
449	2004.0
450	2003.0
451	1971.0
452	1957.0
453	1963.0
454	1976.0
455	1998.0
456	2026.0
457	2027.0
458	2021.0
459	2046.0
460	2043.0
461	2081.0
462	2072.0
463	2070.0
464	2070.0
465	2055.0
466	2071.0
467	2050.0
468	2008.0
469	1976.0
470	1983.0
471	1988.0
472	2010.0
473	2004.0
474	2036.0
475	2022.0
476	2020.0
477	2051.0
478	2039.0
479	2042.0
480	2026.0
481	2001.0
482	2001.0
483	2031.0
484	2047.0
485	2062.0
486	2047.0
487	2031.0
488	2027.0
489	2034.0
490	2044.0
491	2025.0
492	2027.0
493	2029.0
494	2000.0
495	1985.0
496	2013.0
497	2023.0
498	2041.0
499	2025.0
500	2027.0
501	2014.0
502	2003.0
503	2015.0
504	1982.0
505	1995.0
506	2013.0
507	2040.0
508	1993.0
509	2010.0
510	2026.0
511	2027.0
512	2023.0
513	2026.0
514	2044.0
515	2046.0
516	2031.0
517	2007.0
518	2029.0
519	2028.0
520	2014.0
521	2009.0
522	2005.0
523	1992.0
524	2018.0
525	2031.0
526	2026.0
527	2030.0
528	2026.0
529	2018.0
530	1979.0
531	2001.0
532	2007.0
533	2012.0
534	2009.0
535	2031.0
536	2041.0
537	2032.0
538	2007.0
539	1963.0
540	1976.0
541	1987.0
542	1999.0
543	2008.0
544	2021.0
545	1988.0
546	1981.0
547	2008.0
548	2031.0
549	2017.0
550	2017.0
551	2039.0
552	2016.0
553	2020.0
554	2018.0
555	2036.0
556	2040.0
557	2044.0
558	2019.0
559	2026.0
560	2009.0
561	2014.0
562	2002.0
563	2008.0
564	2027.0
565	2007.0
566	2019.0
567	2020.0
568	2021.0
569	2000.0
570	2013.0
571	2031.0
572	2038.0
573	2036.0
574	2002.0
575	2015.0
576	2036.0
577	2049.0
578	2038.0
579	2037.0
580	2030.0
581	2053.0
582	2040.0
583	2042.0
584	2014.0
585	2007.0
586	2040.0
587	2043.0
588	2042.0
589	2049.0
590	2047.0
591	2046.0
592	2052.0
593	2029.0
594	2016.0
595	1999.0
596	2070.0
597	2106.0
598	2080.0
599	2047.0
600	2001.0
601	2013.0
602	2035.0
603	2046.0
604	2012.0
605	2012.0
606	2007.0
607	2023.0
608	2036.0
609	2066.0
610	2045.0
611	2016.0
612	1990.0
613	1994.0
614	2037.0
615	2028.0
616	2041.0
617	2021.0
618	2031.0
619	2019.0
620	2000.0
621	1988.0
622	1969.0
623	1976.0
624	2005.0
625	2012.0
626	1987.0
627	1999.0
628	2015.0
629	2037.0
630	2019.0
631	2026.0
632	2011.0
633	2018.0
634	2017.0
635	2014.0
636	2027.0
637	2009.0
638	2118.0
639	2153.0
640	2107.0
641	2054.0
642	2034.0
643	2055.0
644	2079.0
645	2033.0
646	1996.0
647	2021.0
648	2034.0
649	2043.0
650	2027.0
651	2028.0
652	2034.0
653	2027.0
654	1996.0
655	2027.0
656	2009.0
657	1990.0
658	1988.0
659	2018.0
660	2052.0
661	2022.0
662	2022.0
663	2021.0
664	2026.0
665	2002.0
666	2002.0
667	2001.0
668	2007.0
669	2029.0
670	2050.0
671	2020.0
672	2011.0
673	2029.0
674	2031.0
675	2046.0
676	2067.0
677	2064.0
678	2029.0
679	2020.0
680	2002.0
681	2019.0
682	2036.0
683	2040.0
684	2030.0
685	2010.0
686	2032.0
687	2044.0
688	2088.0
689	2090.0
690	2039.0
691	2013.0
692	2019.0
693	2039.0
694	2052.0
695	2045.0
696	1982.0
697	1987.0
698	1995.0
699	2004.0
700	2019.0
701	2057.0
702	2047.0
703	2026.0
704	2007.0
705	2018.0
706	2024.0
707	2004.0
708	2019.0
709	1995.0
710	2012.0
711	2024.0
712	2036.0
713	2015.0
714	2035.0
715	2052.0
716	2049.0
717	2039.0
718	2047.0
719	2057.0
720	2063.0
721	2075.0
722	2049.0
723	2027.0
724	2013.0
725	2045.0
726	2020.0
727	2043.0
728	2054.0
729	2035.0
730	2033.0
731	2008.0
732	2006.0
733	2028.0
734	2080.0
735	2070.0
736	2057.0
737	2025.0
738	2011.0
739	2021.0
740	2036.0
741	2011.0
742	2008.0
743	2015.0
744	2023.0
745	2020.0
746	1989.0
747	2022.0
748	2003.0
749	2018.0
750	2041.0
751	2034.0
