================================================================================
RAMAN SPECTROMETER DEBUG LOG
Timestamp: 2026-01-19T15:54:16.700952
================================================================================

--- CONFIGURATION ---
Port: /dev/ttyUSB0
Baudrate: 9600
Integration time: 200 ms
Timeout: 10.0 s
Expected data points: 2048
Min data points: 2048

--- RAW DATA INFO ---
Total bytes received: 14370
Null bytes count: 1

--- RAW BYTES (first 500, hex) ---
61 0d 0a 41 43 4b 0d 0a 0d 0a 49 32 30 30 0d 0a 
41 43 4b 0d 0a 0d 0a 53 0d 0a 41 43 4b 0d 0a 30 
31 38 34 35 0d 0a 30 31 38 32 32 0d 0a 30 31 38 
33 36 0d 0a 30 31 38 34 39 0d 0a 30 31 38 35 34 
0d 0a 30 31 38 36 34 0d 0a 30 31 38 39 33 0d 0a 
30 31 38 37 32 0d 0a 30 31 38 39 33 0d 0a 30 31 
39 31 32 0d 0a 30 31 38 37 32 0d 0a 30 31 38 35 
35 0d 0a 30 31 38 34 35 0d 0a 30 31 38 35 36 0d 
0a 30 31 38 33 32 0d 0a 30 31 38 36 32 0d 0a 30 
31 38 34 37 0d 0a 30 31 38 34 39 0d 0a 30 31 38 
34 32 0d 0a 30 31 38 33 39 0d 0a 30 31 38 33 39 
0d 0a 30 31 38 33 35 0d 0a 30 31 38 35 30 0d 0a 
30 31 38 34 34 0d 0a 30 31 38 36 32 0d 0a 30 31 
38 37 30 0d 0a 30 31 38 37 36 0d 0a 30 31 38 38 
32 0d 0a 30 31 38 38 35 0d 0a 30 31 38 36 39 0d 
0a 30 31 38 39 32 0d 0a 30 31 39 30 38 0d 0a 30 
31 38 35 30 0d 0a 30 31 38 34 33 0d 0a 30 31 38 
38 32 0d 0a 30 31 38 39 38 0d 0a 30 31 38 36 34 
0d 0a 30 31 38 38 30 0d 0a 30 31 38 38 34 0d 0a 
30 31 38 36 30 0d 0a 30 31 38 36 38 0d 0a 30 31 
38 35 33 0d 0a 30 31 38 36 38 0d 0a 30 31 38 38 
36 0d 0a 30 31 39 33 36 0d 0a 30 31 38 39 37 0d 
0a 30 31 38 35 35 0d 0a 30 31 38 35 31 0d 0a 30 
31 38 35 31 0d 0a 30 31 38 35 35 0d 0a 30 31 38 
35 31 0d 0a 30 31 38 36 35 0d 0a 30 31 38 36 36 
0d 0a 30 31 38 38 38 0d 0a 30 31 38 37 31 0d 0a 
30 31 38 39 30 0d 0a 30 31 38 37 34 0d 0a 30 31 
38 38 32 0d 0a 30 31 39 30 34 0d 0a 30 31 38 37 
38 0d 0a 30 31 38 36 32 0d 0a 30 31 38 34 34 0d 
0a 30 31 38 36 36 0d 0a 30 31 38 35 30 0d 0a 30 
31 38 36 30 0d 0a 30 31 38 37 34 0d 0a 30 31 38 
38 37 0d 0a

--- RAW DATA AS STRING (first 1000 chars) ---
a
ACK

I200
ACK

S
ACK
01845
01822
01836
01849
01854
01864
01893
01872
01893
01912
01872
01855
01845
01856
01832
01862
01847
01849
01842
01839
01839
01835
01850
01844
01862
01870
01876
01882
01885
01869
01892
01908
01850
01843
01882
01898
01864
01880
01884
01860
01868
01853
01868
01886
01936
01897
01855
01851
01851
01855
01851
01865
01866
01888
01871
01890
01874
01882
01904
01878
01862
01844
01866
01850
01860
01874
01887
01858
01810
01832
01848
01844
01830
01846
01840
01854
01861
01829
01835
01834
01845
01821
01846
01839
02075
02134
02012
01948
01889
01855
01822
01844
01884
01865
01838
01820
01826
01841
01835
01823
01842
01868
01874
01866
01862
01832
01812
01808
01830
01845
01836
01830
01821
01813
01812
01818
01820
01820
01844
01848
01829
01809
01813
01810
01822
01837
01833
01839
01853
01870
01844
01826
01818
01834
01822
01796
01819
01831
018

--- PARSED VALUES ---
Total parsed values: 2048
Min value: 1771.0
Max value: 2134.0
Mean value: 1863.192
Saturated values (>=65535): 0
First 20 values: [1845.0, 1822.0, 1836.0, 1849.0, 1854.0, 1864.0, 1893.0, 1872.0, 1893.0, 1912.0, 1872.0, 1855.0, 1845.0, 1856.0, 1832.0, 1862.0, 1847.0, 1849.0, 1842.0, 1839.0]
Last 20 values: [1943.0, 1932.0, 1927.0, 1896.0, 1874.0, 1903.0, 1890.0, 1878.0, 1880.0, 1874.0, 1873.0, 1885.0, 1884.0, 1864.0, 1876.0, 1850.0, 1846.0, 1813.0, 1815.0, 1818.0]

--- FULL SPECTRUM DATA (one value per line) ---
0	1845.0
1	1822.0
2	1836.0
3	1849.0
4	1854.0
5	1864.0
6	1893.0
7	1872.0
8	1893.0
9	1912.0
10	1872.0
11	1855.0
12	1845.0
13	1856.0
14	1832.0
15	1862.0
16	1847.0
17	1849.0
18	1842.0
19	1839.0
20	1839.0
21	1835.0
22	1850.0
23	1844.0
24	1862.0
25	1870.0
26	1876.0
27	1882.0
28	1885.0
29	1869.0
30	1892.0
31	1908.0
32	1850.0
33	1843.0
34	1882.0
35	1898.0
36	1864.0
37	1880.0
38	1884.0
39	1860.0
40	1868.0
41	1853.0
42	1868.0
43	1886.0
44	1936.0
45	1897.0
46	1855.0
47	1851.0
48	1851.0
49	1855.0
50	1851.0
51	1865.0
52	1866.0
53	1888.0
54	1871.0
55	1890.0
56	1874.0
57	1882.0
58	1904.0
59	1878.0
60	1862.0
61	1844.0
62	1866.0
63	1850.0
64	1860.0
65	1874.0
66	1887.0
67	1858.0
68	1810.0
69	1832.0
70	1848.0
71	1844.0
72	1830.0
73	1846.0
74	1840.0
75	1854.0
76	1861.0
77	1829.0
78	1835.0
79	1834.0
80	1845.0
81	1821.0
82	1846.0
83	1839.0
84	2075.0
85	2134.0
86	2012.0
87	1948.0
88	1889.0
89	1855.0
90	1822.0
91	1844.0
92	1884.0
93	1865.0
94	1838.0
95	1820.0
96	1826.0
97	1841.0
98	1835.0
99	1823.0
100	1842.0
101	1868.0
102	1874.0
103	1866.0
104	1862.0
105	1832.0
106	1812.0
107	1808.0
108	1830.0
109	1845.0
110	1836.0
111	1830.0
112	1821.0
113	1813.0
114	1812.0
115	1818.0
116	1820.0
117	1820.0
118	1844.0
119	1848.0
120	1829.0
121	1809.0
122	1813.0
123	1810.0
124	1822.0
125	1837.0
126	1833.0
127	1839.0
128	1853.0
129	1870.0
130	1844.0
131	1826.0
132	1818.0
133	1834.0
134	1822.0
135	1796.0
136	1819.0
137	1831.0
138	1840.0
139	1832.0
140	1833.0
141	1869.0
142	1900.0
143	1865.0
144	1855.0
145	1875.0
146	1921.0
147	1931.0
148	1916.0
149	1892.0
150	1854.0
151	1858.0
152	1846.0
153	1827.0
154	1819.0
155	1812.0
156	1835.0
157	1853.0
158	1845.0
159	1828.0
160	1837.0
161	1838.0
162	1853.0
163	1876.0
164	1877.0
165	1883.0
166	1878.0
167	1890.0
168	1862.0
169	1865.0
170	1840.0
171	1845.0
172	1844.0
173	1845.0
174	1851.0
175	1842.0
176	1837.0
177	1860.0
178	1867.0
179	1856.0
180	1840.0
181	1833.0
182	1860.0
183	1882.0
184	1880.0
185	1891.0
186	1880.0
187	1887.0
188	1842.0
189	1860.0
190	1884.0
191	1887.0
192	1854.0
193	1799.0
194	1793.0
195	1805.0
196	1832.0
197	1839.0
198	1809.0
199	1790.0
200	1826.0
201	1840.0
202	1842.0
203	1834.0
204	1810.0
205	1841.0
206	1854.0
207	1840.0
208	1815.0
209	1841.0
210	1855.0
211	1860.0
212	1849.0
213	1868.0
214	1935.0
215	1912.0
216	1862.0
217	1845.0
218	1846.0
219	1852.0
220	1855.0
221	1820.0
222	1804.0
223	1824.0
224	1853.0
225	1859.0
226	1844.0
227	1852.0
228	1825.0
229	1828.0
230	1841.0
231	1863.0
232	1840.0
233	1848.0
234	1881.0
235	1891.0
236	1866.0
237	1833.0
238	1869.0
239	1878.0
240	1865.0
241	1930.0
242	1927.0
243	1902.0
244	1885.0
245	1882.0
246	1872.0
247	1909.0
248	1892.0
249	1867.0
250	1860.0
251	1855.0
252	1847.0
253	1837.0
254	1823.0
255	1812.0
256	1837.0
257	1825.0
258	1821.0
259	1829.0
260	1843.0
261	1862.0
262	1857.0
263	1861.0
264	1869.0
265	1927.0
266	1892.0
267	1876.0
268	1867.0
269	1858.0
270	1872.0
271	1846.0
272	1828.0
273	1814.0
274	1869.0
275	1878.0
276	1868.0
277	1825.0
278	1823.0
279	1820.0
280	1826.0
281	1828.0
282	1825.0
283	1838.0
284	1841.0
285	1839.0
286	1824.0
287	1856.0
288	1854.0
289	1826.0
290	1815.0
291	1802.0
292	1832.0
293	1838.0
294	1865.0
295	1850.0
296	1866.0
297	1856.0
298	1842.0
299	1832.0
300	1811.0
301	1827.0
302	1832.0
303	1822.0
304	1825.0
305	1855.0
306	1849.0
307	1858.0
308	1858.0
309	1948.0
310	2006.0
311	1925.0
312	1887.0
313	1884.0
314	1909.0
315	1866.0
316	1852.0
317	1853.0
318	1864.0
319	1853.0
320	1860.0
321	1865.0
322	1834.0
323	1819.0
324	1852.0
325	1871.0
326	1866.0
327	1909.0
328	1887.0
329	1859.0
330	1862.0
331	1884.0
332	1874.0
333	1822.0
334	1810.0
335	1843.0
336	1877.0
337	1864.0
338	1868.0
339	1884.0
340	1854.0
341	1833.0
342	1812.0
343	1830.0
344	1830.0
345	1830.0
346	1848.0
347	1871.0
348	1860.0
349	1864.0
350	1849.0
351	1862.0
352	1891.0
353	1899.0
354	1877.0
355	1842.0
356	1832.0
357	1823.0
358	1823.0
359	1825.0
360	1827.0
361	1856.0
362	1855.0
363	1857.0
364	1854.0
365	1863.0
366	1850.0
367	1842.0
368	1828.0
369	1834.0
370	1837.0
371	1850.0
372	1844.0
373	1815.0
374	1823.0
375	1814.0
376	1844.0
377	1861.0
378	1874.0
379	1866.0
380	1837.0
381	1834.0
382	1811.0
383	1846.0
384	1820.0
385	1812.0
386	1820.0
387	1842.0
388	1848.0
389	1836.0
390	1837.0
391	1875.0
392	1897.0
393	1879.0
394	1862.0
395	1843.0
396	1864.0
397	1864.0
398	1802.0
399	1802.0
400	1814.0
401	1848.0
402	1836.0
403	1866.0
404	1898.0
405	1895.0
406	1849.0
407	1806.0
408	1844.0
409	1869.0
410	1866.0
411	1848.0
412	1866.0
413	1878.0
414	1875.0
415	1861.0
416	1853.0
417	1869.0
418	1879.0
419	1872.0
420	1862.0
421	1893.0
422	1900.0
423	1875.0
424	1827.0
425	1824.0
426	1833.0
427	1840.0
428	1852.0
429	1862.0
430	1896.0
431	1898.0
432	1880.0
433	1869.0
434	1896.0
435	1877.0
436	1888.0
437	1898.0
438	1863.0
439	1875.0
440	1910.0
441	1908.0
442	1879.0
443	1905.0
444	1885.0
445	1896.0
446	1921.0
447	1916.0
448	1923.0
449	1920.0
450	1913.0
451	1889.0
452	1859.0
453	1856.0
454	1861.0
455	1857.0
456	1866.0
457	1871.0
458	1865.0
459	1869.0
460	1845.0
461	1863.0
462	1855.0
463	1845.0
464	1820.0
465	1818.0
466	1853.0
467	1842.0
468	1830.0
469	1821.0
470	1839.0
471	1822.0
472	1829.0
473	1832.0
474	1864.0
475	1875.0
476	1871.0
477	1873.0
478	1866.0
479	1874.0
480	1866.0
481	1852.0
482	1859.0
483	1880.0
484	1880.0
485	1881.0
486	1853.0
487	1831.0
488	1863.0
489	1867.0
490	1886.0
491	1901.0
492	1886.0
493	1842.0
494	1845.0
495	1851.0
496	1818.0
497	1815.0
498	1810.0
499	1831.0
500	1834.0
501	1822.0
502	1840.0
503	1872.0
504	1884.0
505	1873.0
506	1884.0
507	1878.0
508	1874.0
509	1861.0
510	1880.0
511	1882.0
512	1877.0
513	1861.0
514	1837.0
515	1846.0
516	1890.0
517	1908.0
518	1904.0
519	1870.0
520	1844.0
521	1826.0
522	1817.0
523	1803.0
524	1796.0
525	1819.0
526	1855.0
527	1851.0
528	1852.0
529	1837.0
530	1850.0
531	1818.0
532	1813.0
533	1798.0
534	1807.0
535	1828.0
536	1816.0
537	1823.0
538	1845.0
539	1879.0
540	1872.0
541	1886.0
542	1883.0
543	1880.0
544	1867.0
545	1831.0
546	1849.0
547	1870.0
548	1874.0
549	1844.0
550	1851.0
551	1878.0
552	1865.0
553	1849.0
554	1853.0
555	1870.0
556	1850.0
557	1844.0
558	1845.0
559	1860.0
560	1882.0
561	1902.0
562	1877.0
563	1850.0
564	1858.0
565	1828.0
566	1830.0
567	1832.0
568	1846.0
569	1848.0
570	1856.0
571	1839.0
572	1844.0
573	1837.0
574	1829.0
575	1826.0
576	1804.0
577	1810.0
578	1826.0
579	1839.0
580	1846.0
581	1840.0
582	1830.0
583	1867.0
584	1889.0
585	1866.0
586	1873.0
587	1867.0
588	1861.0
589	1843.0
590	1844.0
591	1827.0
592	1819.0
593	1847.0
594	1847.0
595	1876.0
596	1913.0
597	1906.0
598	1860.0
599	1851.0
600	1826.0
601	1834.0
602	1850.0
603	1842.0
604	1856.0
605	1860.0
606	1848.0
607	1829.0
608	1826.0
609	1859.0
610	1881.0
611	1876.0
612	1884.0
613	1897.0
614	1860.0
615	1861.0
616	1841.0
617	1877.0
618	1892.0
619	1884.0
620	1865.0
621	1848.0
622	1858.0
623	1857.0
624	1867.0
625	1844.0
626	1836.0
627	1813.0
628	1850.0
629	1868.0
630	1849.0
631	1844.0
632	1839.0
633	1836.0
634	1820.0
635	1825.0
636	1809.0
637	1822.0
638	1883.0
639	1886.0
640	1849.0
641	1852.0
642	1849.0
643	1847.0
644	1844.0
645	1853.0
646	1880.0
647	1859.0
648	1845.0
649	1838.0
650	1836.0
651	1828.0
652	1831.0
653	1834.0
654	1825.0
655	1837.0
656	1848.0
657	1874.0
658	1863.0
659	1862.0
660	1841.0
661	1837.0
662	1868.0
663	1877.0
664	1872.0
665	1834.0
666	1850.0
667	1860.0
668	1862.0
669	1886.0
670	1882.0
671	1867.0
672	1868.0
673	1852.0
674	1818.0
675	1853.0
676	1849.0
677	1844.0
678	1830.0
679	1830.0
680	1836.0
681	1838.0
682	1864.0
683	1847.0
684	1834.0
685	1834.0
686	1867.0
687	1846.0
688	1850.0
689	1843.0
690	1843.0
691	1855.0
692	1827.0
693	1864.0
694	1871.0
695	1888.0
696	1865.0
697	1855.0
698	1850.0
699	1843.0
700	1844.0
701	1845.0
702	1853.0
703	1851.0
704	1868.0
705	1831.0
706	1831.0
707	1855.0
708	1850.0
709	1842.0
710	1856.0
711	1884.0
712	1864.0
713	1868.0
714	1855.0
715	1861.0
716	1858.0
717	1872.0
718	1870.0
719	1874.0
720	1913.0
721	1897.0
722	1867.0
723	1834.0
724	1855.0
725	1897.0
726	1886.0
727	1846.0
728	1839.0
729	1878.0
730	1888.0
731	1868.0
732	1819.0
733	1822.0
734	1857.0
735	1878.0
736	1921.0
737	1933.0
738	1897.0
739	1869.0
740	1860.0
741	1826.0
742	1826.0
743	1828.0
744	1837.0
745	1847.0
746	1862.0
747	1903.0
748	1896.0
749	1855.0
750	1839.0
751	1862.0
752	1878.0
753	1872.0
754	1835.0
755	1861.0
756	1855.0
757	1873.0
758	1888.0
759	1868.0
760	1867.0
761	1877.0
762	1846.0
763	1825.0
764	1846.0
765	1866.0
766	1875.0
767	1871.0
768	1855.0
769	1853.0
770	1851.0
771	1857.0
772	1856.0
773	1863.0
774	1849.0
775	1843.0
776	1834.0
777	1849.0
778	1858.0
779	1849.0
780	1868.0
781	1872.0
782	1862.0
783	1842.0
784	1844.0
785	1831.0
786	1851.0
787	1843.0
788	1828.0
789	1845.0
790	1840.0
791	1846.0
792	1842.0
793	1828.0
794	1811.0
795	1813.0
796	1798.0
797	1787.0
798	1823.0
799	1821.0
800	1842.0
801	1826.0
802	1840.0
803	1847.0
804	1866.0
805	1871.0
806	1885.0
807	1886.0
808	1841.0
809	1856.0
810	1857.0
811	1851.0
812	1841.0
813	1863.0
814	1854.0
815	1841.0
816	1842.0
817	1839.0
818	1874.0
819	1877.0
820	1859.0
821	1853.0
822	1872.0
823	1836.0
824	1839.0
825	1850.0
826	1828.0
827	1816.0
828	1824.0
829	1815.0
830	1816.0
831	1846.0
832	1863.0
833	1886.0
834	1895.0
835	1864.0
836	1847.0
837	1848.0
838	1879.0
839	1890.0
840	1868.0
841	1851.0
842	1829.0
843	1800.0
844	1787.0
845	1772.0
846	1806.0
847	1857.0
848	1845.0
849	1829.0
850	1814.0
851	1805.0
852	1837.0
853	1881.0
854	1884.0
855	1971.0
856	1963.0
857	1907.0
858	1893.0
859	1888.0
860	1915.0
861	1903.0
862	1900.0
863	1890.0
864	1887.0
865	1863.0
866	1840.0
867	1847.0
868	1858.0
869	1864.0
870	1840.0
871	1866.0
872	1871.0
873	1872.0
874	1846.0
875	1838.0
876	1843.0
877	1824.0
878	1857.0
879	1876.0
880	1880.0
881	1880.0
882	1885.0
883	1848.0
884	1811.0
885	1822.0
886	1813.0
887	1820.0
888	1802.0
889	1807.0
890	1824.0
891	1828.0
892	1812.0
893	1839.0
894	1851.0
895	1849.0
896	1842.0
897	1793.0
898	1815.0
899	1842.0
900	1873.0
901	1890.0
902	1914.0
903	1925.0
904	1884.0
905	1854.0
906	1814.0
907	1832.0
908	1863.0
909	1891.0
910	1882.0
911	1892.0
912	1884.0
913	1868.0
914	1848.0
915	1810.0
916	1831.0
917	1936.0
918	1958.0
919	1909.0
920	1895.0
921	1876.0
922	1870.0
923	1842.0
924	1789.0
925	1809.0
926	1824.0
927	1854.0
928	1865.0
929	1866.0
930	1850.0
931	1860.0
932	1832.0
933	1830.0
934	1853.0
935	1876.0
936	1896.0
937	1887.0
938	1895.0
939	1863.0
940	1825.0
941	1814.0
942	1810.0
943	1811.0
944	1787.0
945	1771.0
946	1792.0
947	1856.0
948	1869.0
949	1830.0
950	1824.0
951	1850.0
952	1862.0
953	1864.0
954	1858.0
955	1855.0
956	1843.0
957	1820.0
958	1826.0
959	1843.0
960	1865.0
961	1851.0
962	1887.0
963	1891.0
964	1858.0
965	1856.0
966	1869.0
967	1861.0
968	1853.0
969	1855.0
970	1874.0
971	1883.0
972	1879.0
973	1866.0
974	1856.0
975	1838.0
976	1853.0
977	1846.0
978	1851.0
979	1820.0
980	1810.0
981	1814.0
982	1820.0
983	1879.0
984	1918.0
985	1918.0
986	1880.0
987	1888.0
988	1888.0
989	1871.0
990	1871.0
991	1860.0
992	1854.0
993	1839.0
994	1854.0
995	1882.0
996	1905.0
997	1874.0
998	1858.0
999	1821.0
1000	1817.0
1001	1823.0
1002	1833.0
1003	1858.0
1004	1842.0
1005	1861.0
1006	1883.0
1007	1891.0
1008	1887.0
1009	1884.0
1010	1866.0
1011	1884.0
1012	1885.0
1013	1824.0
1014	1829.0
1015	1838.0
1016	1862.0
1017	1836.0
1018	1836.0
1019	1849.0
1020	1866.0
1021	1885.0
1022	1850.0
1023	1871.0
1024	1872.0
1025	1849.0
1026	1823.0
1027	1829.0
1028	1844.0
1029	1854.0
1030	1891.0
1031	1887.0
1032	1899.0
1033	1859.0
1034	1844.0
1035	1827.0
1036	1847.0
1037	1867.0
1038	1868.0
1039	1877.0
1040	1878.0
1041	1934.0
1042	1946.0
1043	1908.0
1044	1873.0
1045	1892.0
1046	1910.0
1047	1948.0
1048	1954.0
1049	1920.0
1050	1909.0
1051	1926.0
1052	1944.0
1053	1942.0
1054	1928.0
1055	1907.0
1056	1925.0
1057	1913.0
1058	1903.0
1059	1899.0
1060	1892.0
1061	1858.0
1062	1874.0
1063	1869.0
1064	1875.0
1065	1925.0
1066	1921.0
1067	1936.0
1068	1908.0
1069	1894.0
1070	1908.0
1071	1917.0
1072	1911.0
1073	1868.0
1074	1905.0
1075	1913.0
1076	1925.0
1077	1883.0
1078	1884.0
1079	1917.0
1080	1925.0
1081	1901.0
1082	1915.0
1083	1893.0
1084	1847.0
1085	1846.0
1086	1829.0
1087	1849.0
1088	1902.0
1089	1891.0
1090	1873.0
1091	1892.0
1092	1909.0
1093	1882.0
1094	1919.0
1095	1945.0
1096	1946.0
1097	1928.0
1098	1919.0
1099	1907.0
1100	1895.0
1101	2000.0
1102	2012.0
1103	1972.0
1104	1939.0
1105	1926.0
1106	1932.0
1107	1932.0
1108	1937.0
1109	1949.0
1110	1967.0
1111	1925.0
1112	1918.0
1113	1911.0
1114	1919.0
1115	1895.0
1116	1914.0
1117	1916.0
1118	1916.0
1119	1933.0
1120	1907.0
1121	1892.0
1122	1918.0
1123	1949.0
1124	1913.0
1125	1893.0
1126	1907.0
1127	1900.0
1128	1916.0
1129	1905.0
1130	1924.0
1131	1934.0
1132	1943.0
1133	1913.0
1134	1910.0
1135	1907.0
1136	1943.0
1137	1954.0
1138	1931.0
1139	1944.0
1140	1948.0
1141	1990.0
1142	1986.0
1143	1941.0
1144	1925.0
1145	1934.0
1146	1942.0
1147	1930.0
1148	1950.0
1149	1971.0
1150	1978.0
1151	1937.0
1152	1940.0
1153	1937.0
1154	1948.0
1155	1947.0
1156	1957.0
1157	1952.0
1158	1923.0
1159	1928.0
1160	1940.0
1161	1932.0
1162	1924.0
1163	1928.0
1164	1929.0
1165	1947.0
1166	1939.0
1167	1926.0
1168	1933.0
1169	1901.0
1170	1887.0
1171	1890.0
1172	1913.0
1173	1896.0
1174	1929.0
1175	1939.0
1176	1943.0
1177	1943.0
1178	1953.0
1179	1954.0
1180	1944.0
1181	1966.0
1182	1949.0
1183	1943.0
1184	1914.0
1185	1913.0
1186	1932.0
1187	1931.0
1188	1925.0
1189	1909.0
1190	1956.0
1191	1962.0
1192	1959.0
1193	1934.0
1194	1953.0
1195	1952.0
1196	1937.0
1197	1943.0
1198	1937.0
1199	1938.0
1200	1951.0
1201	1963.0
1202	1965.0
1203	1973.0
1204	1934.0
1205	1927.0
1206	1944.0
1207	1944.0
1208	1979.0
1209	1963.0
1210	1946.0
1211	1933.0
1212	1940.0
1213	1945.0
1214	1981.0
1215	1956.0
1216	1917.0
1217	1917.0
1218	1910.0
1219	1909.0
1220	1916.0
1221	1935.0
1222	1916.0
1223	1895.0
1224	1899.0
1225	1940.0
1226	1961.0
1227	1928.0
1228	1934.0
1229	1918.0
1230	1924.0
1231	1945.0
1232	1989.0
1233	1979.0
1234	1971.0
1235	1972.0
1236	1938.0
1237	1943.0
1238	1951.0
1239	1974.0
1240	1958.0
1241	1941.0
1242	1955.0
1243	1954.0
1244	1958.0
1245	1937.0
1246	1949.0
1247	1948.0
1248	1951.0
1249	1932.0
1250	1961.0
1251	1970.0
1252	1969.0
1253	1960.0
1254	1922.0
1255	1900.0
1256	1905.0
1257	1948.0
1258	1938.0
1259	1932.0
1260	1925.0
1261	1931.0
1262	1943.0
1263	1911.0
1264	1903.0
1265	1902.0
1266	1890.0
1267	1886.0
1268	1908.0
1269	1894.0
1270	1901.0
1271	1920.0
1272	1934.0
1273	1916.0
1274	1897.0
1275	1892.0
1276	1919.0
1277	1921.0
1278	1878.0
1279	1885.0
1280	1865.0
1281	1875.0
1282	1866.0
1283	1849.0
1284	1851.0
1285	1846.0
1286	1821.0
1287	1810.0
1288	1801.0
1289	1791.0
1290	1818.0
1291	1821.0
1292	1827.0
1293	1834.0
1294	1848.0
1295	1866.0
1296	1858.0
1297	1866.0
1298	1826.0
1299	1823.0
1300	1812.0
1301	1810.0
1302	1798.0
1303	1798.0
1304	1827.0
1305	1865.0
1306	1890.0
1307	1850.0
1308	1852.0
1309	1838.0
1310	1836.0
1311	1807.0
1312	1802.0
1313	1839.0
1314	1850.0
1315	1844.0
1316	1814.0
1317	1823.0
1318	1824.0
1319	1834.0
1320	1832.0
1321	1836.0
1322	1836.0
1323	1838.0
1324	1842.0
1325	1855.0
1326	1874.0
1327	1863.0
1328	1856.0
1329	1834.0
1330	1843.0
1331	1840.0
1332	1820.0
1333	1829.0
1334	1824.0
1335	1853.0
1336	1859.0
1337	1862.0
1338	1847.0
1339	1903.0
1340	1924.0
1341	1883.0
1342	1861.0
1343	1846.0
1344	1845.0
1345	1855.0
1346	1884.0
1347	1876.0
1348	1877.0
1349	1861.0
1350	1879.0
1351	1889.0
1352	1869.0
1353	1860.0
1354	1827.0
1355	1814.0
1356	1814.0
1357	1867.0
1358	1873.0
1359	1860.0
1360	1892.0
1361	1874.0
1362	1858.0
1363	1844.0
1364	1884.0
1365	1888.0
1366	1887.0
1367	1893.0
1368	1907.0
1369	1882.0
1370	1867.0
1371	1850.0
1372	1863.0
1373	1876.0
1374	1842.0
1375	1827.0
1376	1815.0
1377	1826.0
1378	1820.0
1379	1829.0
1380	1845.0
1381	1838.0
1382	1849.0
1383	1844.0
1384	1828.0
1385	1828.0
1386	1852.0
1387	1840.0
1388	1851.0
1389	1876.0
1390	1886.0
1391	1845.0
1392	1829.0
1393	1847.0
1394	1847.0
1395	1855.0
1396	1839.0
1397	1828.0
1398	1799.0
1399	1795.0
1400	1945.0
1401	1966.0
1402	1896.0
1403	1869.0
1404	1897.0
1405	1892.0
1406	1858.0
1407	1853.0
1408	1892.0
1409	1896.0
1410	1878.0
1411	1860.0
1412	1836.0
1413	1850.0
1414	1836.0
1415	1838.0
1416	1823.0
1417	1808.0
1418	1805.0
1419	1833.0
1420	1834.0
1421	1812.0
1422	1820.0
1423	1802.0
1424	1817.0
1425	1828.0
1426	1855.0
1427	1856.0
1428	1845.0
1429	1843.0
1430	1846.0
1431	1844.0
1432	1815.0
1433	1848.0
1434	1887.0
1435	1871.0
1436	1845.0
1437	1851.0
1438	1847.0
1439	1869.0
1440	1877.0
1441	1849.0
1442	1890.0
1443	1907.0
1444	1887.0
1445	1862.0
1446	1860.0
1447	1871.0
1448	1888.0
1449	1862.0
1450	1836.0
1451	1857.0
1452	1859.0
1453	1861.0
1454	1832.0
1455	1842.0
1456	1849.0
1457	1853.0
1458	1852.0
1459	1836.0
1460	1901.0
1461	1901.0
1462	1875.0
1463	1825.0
1464	1861.0
1465	1873.0
1466	1833.0
1467	1813.0
1468	1820.0
1469	1846.0
1470	1855.0
1471	1863.0
1472	1837.0
1473	1844.0
1474	1837.0
1475	1836.0
1476	1833.0
1477	1813.0
1478	1824.0
1479	1815.0
1480	1842.0
1481	1849.0
1482	1871.0
1483	1870.0
1484	1849.0
1485	1831.0
1486	1837.0
1487	1837.0
1488	1834.0
1489	1857.0
1490	1830.0
1491	1811.0
1492	1827.0
1493	1831.0
1494	1838.0
1495	1839.0
1496	1836.0
1497	1835.0
1498	1825.0
1499	1808.0
1500	1828.0
1501	1829.0
1502	1880.0
1503	1874.0
1504	1879.0
1505	1877.0
1506	1898.0
1507	1943.0
1508	1943.0
1509	1915.0
1510	1872.0
1511	1861.0
1512	1877.0
1513	1887.0
1514	1874.0
1515	1869.0
1516	1860.0
1517	1856.0
1518	1843.0
1519	1828.0
1520	1824.0
1521	1821.0
1522	1838.0
1523	1841.0
1524	1869.0
1525	1866.0
1526	1867.0
1527	1853.0
1528	1836.0
1529	1864.0
1530	1861.0
1531	1858.0
1532	1890.0
1533	1894.0
1534	1855.0
1535	1854.0
1536	1837.0
1537	1844.0
1538	1867.0
1539	1868.0
1540	1880.0
1541	1879.0
1542	1866.0
1543	1821.0
1544	1800.0
1545	1829.0
1546	1858.0
1547	1876.0
1548	1830.0
1549	1841.0
1550	1867.0
1551	1899.0
1552	1891.0
1553	1862.0
1554	1842.0
1555	1828.0
1556	1829.0
1557	1803.0
1558	1835.0
1559	1866.0
1560	1870.0
1561	1829.0
1562	1788.0
1563	1797.0
1564	1814.0
1565	1851.0
1566	1829.0
1567	1845.0
1568	1854.0
1569	1869.0
1570	1881.0
1571	1914.0
1572	1880.0
1573	1867.0
1574	1857.0
1575	1824.0
1576	1834.0
1577	1874.0
1578	1866.0
1579	1837.0
1580	1831.0
1581	1842.0
1582	1870.0
1583	1850.0
1584	1833.0
1585	1867.0
1586	1856.0
1587	1850.0
1588	1844.0
1589	1858.0
1590	1870.0
1591	1874.0
1592	1882.0
1593	1868.0
1594	1866.0
1595	1905.0
1596	1883.0
1597	1842.0
1598	1843.0
1599	1849.0
1600	1875.0
1601	1872.0
1602	1868.0
1603	1865.0
1604	1871.0
1605	1883.0
1606	1882.0
1607	1879.0
1608	1847.0
1609	1865.0
1610	1866.0
1611	1886.0
1612	1848.0
1613	1826.0
1614	1816.0
1615	1832.0
1616	1889.0
1617	1925.0
1618	1906.0
1619	1877.0
1620	1877.0
1621	1853.0
1622	1856.0
1623	1859.0
1624	1849.0
1625	1867.0
1626	1862.0
1627	1876.0
1628	1864.0
1629	1882.0
1630	1879.0
1631	1867.0
1632	1848.0
1633	1845.0
1634	1866.0
1635	1864.0
1636	1895.0
1637	1888.0
1638	1888.0
1639	1877.0
1640	1861.0
1641	1858.0
1642	1859.0
1643	1865.0
1644	1856.0
1645	1897.0
1646	1881.0
1647	1868.0
1648	1852.0
1649	1861.0
1650	1837.0
1651	1809.0
1652	1797.0
1653	1805.0
1654	1821.0
1655	1798.0
1656	1830.0
1657	1861.0
1658	1873.0
1659	1865.0
1660	1871.0
1661	1854.0
1662	1850.0
1663	1869.0
1664	1867.0
1665	1885.0
1666	1850.0
1667	1848.0
1668	1821.0
1669	1826.0
1670	1832.0
1671	1832.0
1672	1834.0
1673	1787.0
1674	1794.0
1675	1819.0
1676	1873.0
1677	1856.0
1678	1857.0
1679	1855.0
1680	1858.0
1681	1850.0
1682	1821.0
1683	1838.0
1684	1860.0
1685	1868.0
1686	1867.0
1687	1869.0
1688	1845.0
1689	1844.0
1690	1862.0
1691	1817.0
1692	1863.0
1693	1888.0
1694	1876.0
1695	1852.0
1696	1837.0
1697	1831.0
1698	1854.0
1699	1847.0
1700	1838.0
1701	1839.0
1702	1840.0
1703	1843.0
1704	1834.0
1705	1846.0
1706	1822.0
1707	1788.0
1708	1789.0
1709	1830.0
1710	1818.0
1711	1821.0
1712	1835.0
1713	1832.0
1714	1866.0
1715	1879.0
1716	1871.0
1717	1879.0
1718	1893.0
1719	1868.0
1720	1863.0
1721	1853.0
1722	1832.0
1723	1872.0
1724	1892.0
1725	1865.0
1726	1877.0
1727	1879.0
1728	1862.0
1729	1850.0
1730	1842.0
1731	1865.0
1732	1881.0
1733	1891.0
1734	1915.0
1735	1884.0
1736	1905.0
1737	1887.0
1738	1869.0
1739	1844.0
1740	1850.0
1741	1834.0
1742	1809.0
1743	1826.0
1744	1834.0
1745	1845.0
1746	1830.0
1747	1843.0
1748	1847.0
1749	1839.0
1750	1847.0
1751	1850.0
1752	1868.0
1753	1840.0
1754	1846.0
1755	1857.0
1756	1846.0
1757	1825.0
1758	1840.0
1759	1856.0
1760	1864.0
1761	1854.0
1762	1830.0
1763	1840.0
1764	1822.0
1765	1820.0
1766	1843.0
1767	1883.0
1768	1907.0
1769	1881.0
1770	1880.0
1771	1880.0
1772	1892.0
1773	1878.0
1774	1843.0
1775	1827.0
1776	1829.0
1777	1830.0
1778	1842.0
1779	1837.0
1780	1811.0
1781	1819.0
1782	1811.0
1783	1823.0
1784	1834.0
1785	1874.0
1786	1860.0
1787	1850.0
1788	1844.0
1789	1830.0
1790	1831.0
1791	1820.0
1792	1848.0
1793	1867.0
1794	1903.0
1795	1881.0
1796	1879.0
1797	1882.0
1798	1854.0
1799	1860.0
1800	1844.0
1801	1843.0
1802	1830.0
1803	1859.0
1804	1847.0
1805	1863.0
1806	1871.0
1807	1853.0
1808	1842.0
1809	1824.0
1810	1844.0
1811	1846.0
1812	1858.0
1813	1848.0
1814	1857.0
1815	1837.0
1816	1828.0
1817	1826.0
1818	1827.0
1819	1862.0
1820	1856.0
1821	1867.0
1822	1887.0
1823	1851.0
1824	1825.0
1825	1851.0
1826	1855.0
1827	1861.0
1828	1877.0
1829	1845.0
1830	1828.0
1831	1848.0
1832	1877.0
1833	1876.0
1834	1877.0
1835	1877.0
1836	1881.0
1837	1867.0
1838	1824.0
1839	1815.0
1840	1836.0
1841	1869.0
1842	1853.0
1843	1852.0
1844	1876.0
1845	1872.0
1846	1858.0
1847	1864.0
1848	1860.0
1849	1851.0
1850	1857.0
1851	1871.0
1852	1894.0
1853	1885.0
1854	1883.0
1855	1899.0
1856	1895.0
1857	1892.0
1858	1888.0
1859	1877.0
1860	1865.0
1861	1866.0
1862	1844.0
1863	1866.0
1864	1853.0
1865	1829.0
1866	1832.0
1867	1832.0
1868	1829.0
1869	1855.0
1870	1871.0
1871	1855.0
1872	1862.0
1873	1886.0
1874	1899.0
1875	1891.0
1876	1872.0
1877	1876.0
1878	1857.0
1879	1861.0
1880	1868.0
1881	1860.0
1882	1820.0
1883	1830.0
1884	1838.0
1885	1831.0
1886	1860.0
1887	1847.0
1888	1852.0
1889	1820.0
1890	1840.0
1891	1858.0
1892	1860.0
1893	1830.0
1894	1833.0
1895	1858.0
1896	1828.0
1897	1819.0
1898	1821.0
1899	1849.0
1900	1994.0
1901	2047.0
1902	1925.0
1903	1887.0
1904	1861.0
1905	1824.0
1906	1864.0
1907	1894.0
1908	1887.0
1909	1874.0
1910	1869.0
1911	1829.0
1912	1864.0
1913	1880.0
1914	1851.0
1915	1848.0
1916	1821.0
1917	1844.0
1918	1830.0
1919	1831.0
1920	1834.0
1921	1852.0
1922	1855.0
1923	1852.0
1924	1861.0
1925	1858.0
1926	1855.0
1927	1850.0
1928	1876.0
1929	1895.0
1930	1906.0
1931	1895.0
1932	1903.0
1933	1881.0
1934	1858.0
1935	1850.0
1936	1887.0
1937	1912.0
1938	1879.0
1939	1869.0
1940	1833.0
1941	1833.0
1942	1826.0
1943	1850.0
1944	1866.0
1945	1850.0
1946	1866.0
1947	1876.0
1948	1875.0
1949	1875.0
1950	1874.0
1951	1824.0
1952	1823.0
1953	1849.0
1954	1866.0
1955	1894.0
1956	1869.0
1957	1869.0
1958	1873.0
1959	1877.0
1960	1873.0
1961	1870.0
1962	1849.0
1963	1837.0
1964	1839.0
1965	1834.0
1966	1839.0
1967	1821.0
1968	1841.0
1969	1846.0
1970	1844.0
1971	1869.0
1972	1871.0
1973	1862.0
1974	1827.0
1975	1827.0
1976	1820.0
1977	1838.0
1978	1841.0
1979	1864.0
1980	1832.0
1981	1809.0
1982	1820.0
1983	1849.0
1984	1871.0
1985	1846.0
1986	1851.0
1987	1882.0
1988	1885.0
1989	1860.0
1990	1852.0
1991	1856.0
1992	1846.0
1993	1893.0
1994	1890.0
1995	1889.0
1996	1903.0
1997	1901.0
1998	1851.0
1999	1842.0
2000	1850.0
2001	1849.0
2002	1836.0
2003	1821.0
2004	1860.0
2005	1864.0
2006	1841.0
2007	1827.0
2008	1842.0
2009	1821.0
2010	1800.0
2011	1803.0
2012	1803.0
2013	1834.0
2014	1839.0
2015	1849.0
2016	1822.0
2017	1827.0
2018	1828.0
2019	1847.0
2020	1855.0
2021	1840.0
2022	1848.0
2023	1835.0
2024	1828.0
2025	1796.0
2026	1895.0
2027	1970.0
2028	1943.0
2029	1932.0
2030	1927.0
2031	1896.0
2032	1874.0
2033	1903.0
2034	1890.0
2035	1878.0
2036	1880.0
2037	1874.0
2038	1873.0
2039	1885.0
2040	1884.0
2041	1864.0
2042	1876.0
2043	1850.0
2044	1846.0
2045	1813.0
2046	1815.0
2047	1818.0
