================================================================================
RAMAN SPECTROMETER DEBUG LOG
Timestamp: 2026-01-17T15:06:04.289382
================================================================================

--- CONFIGURATION ---
Port: /dev/ttyUSB0
Baudrate: 9600
Integration time: 2000 ms
Timeout: 10.0 s
Expected data points: 2048
Min data points: 100

--- RAW DATA INFO ---
Total bytes received: 11098
Null bytes count: 0

--- RAW BYTES (first 500, hex) ---
61 0d 0a 41 43 4b 0d 0a 0d 0a 49 32 30 30 30 0d 
0a 41 43 4b 0d 0a 0d 0a 53 0d 0a 41 43 4b 0d 0a 
30 32 30 31 33 0d 0a 30 32 30 30 36 0d 0a 30 31 
39 39 38 0d 0a 30 31 39 39 39 0d 0a 30 32 30 30 
34 0d 0a 30 31 39 37 37 0d 0a 30 31 39 39 38 0d 
0a 30 31 39 39 33 0d 0a 30 31 39 39 36 0d 0a 30 
31 39 37 35 0d 0a 30 31 39 38 36 0d 0a 30 31 39 
38 35 0d 0a 30 31 39 38 31 0d 0a 30 31 39 37 32 
0d 0a 30 31 39 38 32 0d 0a 30 32 31 39 33 0d 0a 
30 32 32 35 33 0d 0a 30 32 31 35 35 0d 0a 30 32 
30 39 38 0d 0a 30 32 30 36 34 0d 0a 30 32 30 38 
32 0d 0a 30 32 31 31 30 0d 0a 30 32 31 38 31 0d 
0a 30 32 32 30 37 0d 0a 30 32 31 35 32 0d 0a 30 
32 31 30 31 0d 0a 30 32 30 39 31 0d 0a 30 32 31 
30 34 0d 0a 30 32 30 39 37 0d 0a 30 32 30 37 31 
0d 0a 30 32 33 31 32 0d 0a 30 32 34 32 34 0d 0a 
30 32 33 33 31 0d 0a 30 32 31 36 38 0d 0a 30 32 
31 30 36 0d 0a 30 32 30 36 38 0d 0a 30 32 30 35 
37 0d 0a 30 32 30 36 35 0d 0a 30 32 30 37 33 0d 
0a 30 32 30 38 37 0d 0a 30 32 31 30 31 0d 0a 30 
32 31 33 31 0d 0a 30 32 31 31 31 0d 0a 30 32 31 
34 34 0d 0a 30 32 34 36 38 0d 0a 30 32 34 38 39 
0d 0a 30 32 32 35 30 0d 0a 30 32 31 33 37 0d 0a 
30 32 30 38 35 0d 0a 30 32 30 37 34 0d 0a 30 32 
30 34 33 0d 0a 30 32 30 33 37 0d 0a 30 32 30 33 
34 0d 0a 30 32 30 34 35 0d 0a 30 32 31 31 33 0d 
0a 30 32 31 31 31 0d 0a 30 32 30 38 34 0d 0a 30 
32 32 32 37 0d 0a 30 32 32 37 32 0d 0a 30 32 31 
39 31 0d 0a 30 32 31 36 31 0d 0a 30 32 30 38 39 
0d 0a 30 32 30 35 34 0d 0a 30 32 30 34 31 0d 0a 
30 32 30 33 36 0d 0a 30 32 30 32 38 0d 0a 30 32 
31 37 33 0d

--- RAW DATA AS STRING (first 1000 chars) ---
a
ACK

I2000
ACK

S
ACK
02013
02006
01998
01999
02004
01977
01998
01993
01996
01975
01986
01985
01981
01972
01982
02193
02253
02155
02098
02064
02082
02110
02181
02207
02152
02101
02091
02104
02097
02071
02312
02424
02331
02168
02106
02068
02057
02065
02073
02087
02101
02131
02111
02144
02468
02489
02250
02137
02085
02074
02043
02037
02034
02045
02113
02111
02084
02227
02272
02191
02161
02089
02054
02041
02036
02028
02173
02206
02104
02084
02101
02108
02065
02042
02034
02018
02014
01999
02007
01999
01973
01953
01986
01994
04688
05322
03780
02896
02456
02273
02178
02167
02360
02392
02197
02136
02103
02079
02053
02064
02119
02096
02113
02080
02056
02015
02025
02027
02038
02042
02044
02020
02043
02070
02074
02092
02075
02054
02022
02065
02066
02042
02072
02141
02129
02133
02161
02130
02093
02072
02075
02043
02048
02080
02070
02029
02013
02047
02

--- PARSED VALUES ---
Total parsed values: 1581
Min value: 1953.0
Max value: 5322.0
Mean value: 2359.678
First 20 values: [2013.0, 2006.0, 1998.0, 1999.0, 2004.0, 1977.0, 1998.0, 1993.0, 1996.0, 1975.0, 1986.0, 1985.0, 1981.0, 1972.0, 1982.0, 2193.0, 2253.0, 2155.0, 2098.0, 2064.0]
Last 20 values: [2026.0, 2013.0, 2024.0, 2035.0, 2034.0, 2006.0, 2028.0, 2053.0, 2048.0, 2076.0, 2126.0, 2129.0, 2064.0, 2050.0, 2030.0, 2018.0, 2296.0, 2404.0, 2234.0, 2107.0]

--- FULL SPECTRUM DATA (one value per line) ---
0	2013.0
1	2006.0
2	1998.0
3	1999.0
4	2004.0
5	1977.0
6	1998.0
7	1993.0
8	1996.0
9	1975.0
10	1986.0
11	1985.0
12	1981.0
13	1972.0
14	1982.0
15	2193.0
16	2253.0
17	2155.0
18	2098.0
19	2064.0
20	2082.0
21	2110.0
22	2181.0
23	2207.0
24	2152.0
25	2101.0
26	2091.0
27	2104.0
28	2097.0
29	2071.0
30	2312.0
31	2424.0
32	2331.0
33	2168.0
34	2106.0
35	2068.0
36	2057.0
37	2065.0
38	2073.0
39	2087.0
40	2101.0
41	2131.0
42	2111.0
43	2144.0
44	2468.0
45	2489.0
46	2250.0
47	2137.0
48	2085.0
49	2074.0
50	2043.0
51	2037.0
52	2034.0
53	2045.0
54	2113.0
55	2111.0
56	2084.0
57	2227.0
58	2272.0
59	2191.0
60	2161.0
61	2089.0
62	2054.0
63	2041.0
64	2036.0
65	2028.0
66	2173.0
67	2206.0
68	2104.0
69	2084.0
70	2101.0
71	2108.0
72	2065.0
73	2042.0
74	2034.0
75	2018.0
76	2014.0
77	1999.0
78	2007.0
79	1999.0
80	1973.0
81	1953.0
82	1986.0
83	1994.0
84	4688.0
85	5322.0
86	3780.0
87	2896.0
88	2456.0
89	2273.0
90	2178.0
91	2167.0
92	2360.0
93	2392.0
94	2197.0
95	2136.0
96	2103.0
97	2079.0
98	2053.0
99	2064.0
100	2119.0
101	2096.0
102	2113.0
103	2080.0
104	2056.0
105	2015.0
106	2025.0
107	2027.0
108	2038.0
109	2042.0
110	2044.0
111	2020.0
112	2043.0
113	2070.0
114	2074.0
115	2092.0
116	2075.0
117	2054.0
118	2022.0
119	2065.0
120	2066.0
121	2042.0
122	2072.0
123	2141.0
124	2129.0
125	2133.0
126	2161.0
127	2130.0
128	2093.0
129	2072.0
130	2075.0
131	2043.0
132	2048.0
133	2080.0
134	2070.0
135	2029.0
136	2013.0
137	2047.0
138	2054.0
139	2074.0
140	2056.0
141	2704.0
142	2839.0
143	2463.0
144	2233.0
145	2107.0
146	2165.0
147	2161.0
148	2228.0
149	2252.0
150	2181.0
151	2106.0
152	2064.0
153	2050.0
154	2047.0
155	2095.0
156	2103.0
157	2033.0
158	2048.0
159	2024.0
160	2019.0
161	2027.0
162	2149.0
163	2171.0
164	2080.0
165	2069.0
166	2058.0
167	2127.0
168	2113.0
169	2072.0
170	2055.0
171	2058.0
172	2061.0
173	2033.0
174	2029.0
175	2042.0
176	2049.0
177	2038.0
178	2022.0
179	2005.0
180	2031.0
181	2014.0
182	2006.0
183	1993.0
184	1979.0
185	1996.0
186	2023.0
187	2030.0
188	2006.0
189	2209.0
190	2257.0
191	2160.0
192	2070.0
193	2031.0
194	2068.0
195	2147.0
196	2171.0
197	2156.0
198	2110.0
199	2062.0
200	2082.0
201	2084.0
202	2105.0
203	2061.0
204	2014.0
205	2018.0
206	2039.0
207	2032.0
208	2030.0
209	2026.0
210	2016.0
211	2071.0
212	2089.0
213	2252.0
214	2652.0
215	2618.0
216	2341.0
217	2233.0
218	2151.0
219	2136.0
220	2100.0
221	2060.0
222	2038.0
223	1993.0
224	2012.0
225	2018.0
226	2033.0
227	2022.0
228	2042.0
229	2056.0
230	2023.0
231	2052.0
232	2055.0
233	2434.0
234	2503.0
235	2262.0
236	2122.0
237	2116.0
238	2196.0
239	2215.0
240	2132.0
241	2770.0
242	2926.0
243	2720.0
244	2551.0
245	2294.0
246	2236.0
247	2527.0
248	2520.0
249	2295.0
250	2186.0
251	2121.0
252	2111.0
253	2099.0
254	2065.0
255	2068.0
256	2065.0
257	2034.0
258	1993.0
259	2003.0
260	2034.0
261	2053.0
262	2015.0
263	2050.0
264	2039.0
265	2474.0
266	2572.0
267	2339.0
268	2188.0
269	2123.0
270	2117.0
271	2090.0
272	2066.0
273	2041.0
274	2056.0
275	2047.0
276	2060.0
277	2038.0
278	2030.0
279	2001.0
280	1998.0
281	2027.0
282	2059.0
283	2053.0
284	2018.0
285	2039.0
286	2048.0
287	2046.0
288	2023.0
289	2010.0
290	2015.0
291	2037.0
292	2041.0
293	2009.0
294	2009.0
295	2011.0
296	2035.0
297	2025.0
298	2002.0
299	2071.0
300	2091.0
301	2076.0
302	2097.0
303	2101.0
304	2093.0
305	2074.0
306	2039.0
307	2038.0
308	2016.0
309	3128.0
310	3506.0
311	2925.0
312	2529.0
313	2306.0
314	2285.0
315	2240.0
316	2141.0
317	2087.0
318	2052.0
319	2062.0
320	2072.0
321	2035.0
322	2037.0
323	2009.0
324	1993.0
325	2032.0
326	2041.0
327	2007.0
328	2019.0
329	2315.0
330	2389.0
331	2422.0
332	2345.0
333	2209.0
334	2182.0
335	2403.0
336	2389.0
337	2212.0
338	2100.0
339	2081.0
340	2063.0
341	2050.0
342	2036.0
343	2055.0
344	2058.0
345	2045.0
346	2075.0
347	2070.0
348	2072.0
349	2041.0
350	2078.0
351	2082.0
352	2045.0
353	2032.0
354	1994.0
355	2014.0
356	2039.0
357	2074.0
358	2077.0
359	2075.0
360	2065.0
361	2104.0
362	2092.0
363	2070.0
364	2089.0
365	2114.0
366	2099.0
367	2085.0
368	2094.0
369	2073.0
370	2090.0
371	2098.0
372	2075.0
373	2034.0
374	2039.0
375	2041.0
376	2093.0
377	2146.0
378	2153.0
379	2121.0
380	2137.0
381	2161.0
382	2105.0
383	2048.0
384	2044.0
385	2075.0
386	2077.0
387	2071.0
388	2064.0
389	2044.0
390	2023.0
391	2228.0
392	2293.0
393	2160.0
394	2106.0
395	2084.0
396	2131.0
397	2117.0
398	2081.0
399	2045.0
400	2021.0
401	1982.0
402	1989.0
403	2005.0
404	2234.0
405	2300.0
406	2141.0
407	2090.0
408	2063.0
409	2071.0
410	2034.0
411	2030.0
412	2064.0
413	2050.0
414	2045.0
415	2006.0
416	2000.0
417	1990.0
418	2011.0
419	2138.0
420	2157.0
421	2170.0
422	2314.0
423	2287.0
424	2180.0
425	2107.0
426	2070.0
427	2070.0
428	2105.0
429	2111.0
430	2123.0
431	2095.0
432	2081.0
433	2079.0
434	2068.0
435	2083.0
436	2168.0
437	2159.0
438	2073.0
439	2079.0
440	2447.0
441	2506.0
442	2290.0
443	2145.0
444	2090.0
445	2329.0
446	2394.0
447	2234.0
448	2226.0
449	2164.0
450	2066.0
451	2059.0
452	2066.0
453	2072.0
454	2033.0
455	2037.0
456	2043.0
457	2029.0
458	2019.0
459	2108.0
460	2099.0
461	2164.0
462	2198.0
463	2127.0
464	2096.0
465	2037.0
466	2043.0
467	2022.0
468	2011.0
469	1997.0
470	2008.0
471	2013.0
472	2058.0
473	2042.0
474	2240.0
475	2281.0
476	2151.0
477	2138.0
478	2212.0
479	2335.0
480	2297.0
481	2201.0
482	2115.0
483	2059.0
484	2041.0
485	2053.0
486	2076.0
487	2073.0
488	2071.0
489	2045.0
490	2028.0
491	2020.0
492	2102.0
493	2121.0
494	2116.0
495	2087.0
496	2118.0
497	2109.0
498	2106.0
499	2076.0
500	2034.0
501	2035.0
502	2043.0
503	2043.0
504	2046.0
505	2039.0
506	1991.0
507	1987.0
508	1980.0
509	2008.0
510	2013.0
511	2007.0
512	2045.0
513	2020.0
514	2014.0
515	2039.0
516	2047.0
517	2138.0
518	2414.0
519	2413.0
520	2285.0
521	2168.0
522	2051.0
523	2021.0
524	2016.0
525	2036.0
526	2036.0
527	2041.0
528	2024.0
529	2048.0
530	2045.0
531	2038.0
532	2008.0
533	1990.0
534	1964.0
535	1968.0
536	2025.0
537	2036.0
538	2044.0
539	2016.0
540	2062.0
541	2116.0
542	2124.0
543	2118.0
544	2116.0
545	2086.0
546	2032.0
547	2014.0
548	2044.0
549	2056.0
550	2089.0
551	2126.0
552	2119.0
553	2097.0
554	2064.0
555	2045.0
556	2015.0
557	2040.0
558	2058.0
559	2041.0
560	2076.0
561	2084.0
562	2077.0
563	2054.0
564	2105.0
565	2098.0
566	2095.0
567	2098.0
568	2069.0
569	2058.0
570	2070.0
571	2061.0
572	2036.0
573	2113.0
574	2129.0
575	2111.0
576	2073.0
577	2040.0
578	1999.0
579	1998.0
580	2002.0
581	2014.0
582	2004.0
583	2022.0
584	2033.0
585	2061.0
586	2105.0
587	2122.0
588	2088.0
589	2036.0
590	2017.0
591	2045.0
592	2078.0
593	2051.0
594	2040.0
595	2020.0
596	2252.0
597	2449.0
598	2332.0
599	2223.0
600	2147.0
601	2100.0
602	2035.0
603	2014.0
604	2052.0
605	2145.0
606	2138.0
607	2068.0
608	2029.0
609	2338.0
610	2415.0
611	2199.0
612	2100.0
613	2047.0
614	2058.0
615	2047.0
616	2054.0
617	2032.0
618	2034.0
619	2033.0
620	2006.0
621	2020.0
622	2020.0
623	2018.0
624	2076.0
625	2115.0
626	2089.0
627	2085.0
628	2070.0
629	2061.0
630	2058.0
631	2028.0
632	2044.0
633	2045.0
634	2060.0
635	2068.0
636	2047.0
637	1988.0
638	2734.0
639	2910.0
640	2467.0
641	2249.0
642	2131.0
643	2290.0
644	2366.0
645	2211.0
646	2084.0
647	2054.0
648	2047.0
649	2051.0
650	2025.0
651	2002.0
652	2018.0
653	2039.0
654	2033.0
655	2051.0
656	2062.0
657	2049.0
658	2087.0
659	2092.0
660	2078.0
661	2052.0
662	2183.0
663	2218.0
664	2128.0
665	2107.0
666	2124.0
667	2153.0
668	2106.0
669	2080.0
670	2045.0
671	2012.0
672	2012.0
673	2020.0
674	2022.0
675	2098.0
676	2093.0
677	2074.0
678	2053.0
679	2029.0
680	2129.0
681	2177.0
682	2152.0
683	2093.0
684	2074.0
685	2015.0
686	2011.0
687	2009.0
688	2306.0
689	2383.0
690	2177.0
691	2059.0
692	2067.0
693	2196.0
694	2190.0
695	2116.0
696	2046.0
697	2037.0
698	2037.0
699	2105.0
700	2102.0
701	2127.0
702	2110.0
703	2107.0
704	2129.0
705	2128.0
706	2120.0
707	2088.0
708	2105.0
709	2106.0
710	2225.0
711	2221.0
712	2133.0
713	2066.0
714	2024.0
715	2025.0
716	2026.0
717	2193.0
718	2246.0
719	2274.0
720	2238.0
721	2180.0
722	2107.0
723	2074.0
724	2031.0
725	2223.0
726	2257.0
727	2113.0
728	2035.0
729	1985.0
730	2014.0
731	1994.0
732	1995.0
733	2028.0
734	2212.0
735	2279.0
736	2575.0
737	2637.0
738	2435.0
739	2254.0
740	2134.0
741	2063.0
742	2047.0
743	2054.0
744	2023.0
745	2018.0
746	2011.0
747	2275.0
748	2338.0
749	2204.0
750	2102.0
751	2049.0
752	2134.0
753	2170.0
754	2100.0
755	2048.0
756	2064.0
757	2306.0
758	2338.0
759	2152.0
760	2113.0
761	2067.0
762	2077.0
763	2086.0
764	2094.0
765	2100.0
766	2079.0
767	2072.0
768	2034.0
769	2039.0
770	2050.0
771	2055.0
772	2036.0
773	2066.0
774	2042.0
775	2012.0
776	2002.0
777	2033.0
778	2032.0
779	2001.0
780	2029.0
781	2061.0
782	2066.0
783	2039.0
784	2054.0
785	2038.0
786	2017.0
787	2070.0
788	2086.0
789	2074.0
790	2049.0
791	2067.0
792	2050.0
793	2056.0
794	2054.0
795	2045.0
796	2033.0
797	2033.0
798	2049.0
799	2164.0
800	2148.0
801	2073.0
802	2058.0
803	2045.0
804	2045.0
805	2023.0
806	2061.0
807	2057.0
808	2055.0
809	2038.0
810	2043.0
811	2030.0
812	2180.0
813	2251.0
814	2161.0
815	2101.0
816	2067.0
817	2089.0
818	2084.0
819	2129.0
820	2145.0
821	2137.0
822	2128.0
823	2090.0
824	2076.0
825	2050.0
826	2041.0
827	2106.0
828	2123.0
829	2052.0
830	2019.0
831	2003.0
832	2014.0
833	2076.0
834	2114.0
835	2083.0
836	2070.0
837	2051.0
838	2030.0
839	2027.0
840	2019.0
841	2054.0
842	2041.0
843	2022.0
844	2041.0
845	2047.0
846	2017.0
847	2016.0
848	2011.0
849	2050.0
850	2090.0
851	2090.0
852	2307.0
853	2316.0
854	2176.0
855	3189.0
856	3380.0
857	2747.0
858	2429.0
859	2287.0
860	2223.0
861	2163.0
862	2181.0
863	2157.0
864	2108.0
865	2100.0
866	2068.0
867	2054.0
868	2031.0
869	2037.0
870	2054.0
871	2150.0
872	2163.0
873	2081.0
874	2022.0
875	2039.0
876	2074.0
877	2038.0
878	2043.0
879	2061.0
880	2049.0
881	2022.0
882	2032.0
883	2002.0
884	2009.0
885	2032.0
886	2044.0
887	2080.0
888	2067.0
889	2035.0
890	2004.0
891	2039.0
892	2045.0
893	2047.0
894	2031.0
895	2021.0
896	2013.0
897	2019.0
898	2015.0
899	2069.0
900	2126.0
901	2098.0
902	2074.0
903	2187.0
904	2206.0
905	2097.0
906	2149.0
907	2144.0
908	2323.0
909	2360.0
910	2212.0
911	2132.0
912	2088.0
913	2093.0
914	2087.0
915	2090.0
916	2106.0
917	2864.0
918	3049.0
919	2605.0
920	2286.0
921	2118.0
922	2076.0
923	2065.0
924	2066.0
925	2027.0
926	2013.0
927	2028.0
928	2039.0
929	1999.0
930	2048.0
931	2072.0
932	2068.0
933	2044.0
934	2063.0
935	2106.0
936	2069.0
937	2065.0
938	2194.0
939	2244.0
940	2136.0
941	2092.0
942	2060.0
943	2036.0
944	2019.0
945	2037.0
946	2032.0
947	2022.0
948	2056.0
949	2041.0
950	2025.0
951	2006.0
952	2015.0
953	2039.0
954	2038.0
955	2054.0
956	2078.0
957	2077.0
958	2047.0
959	2029.0
960	1998.0
961	1976.0
962	2087.0
963	2175.0
964	2130.0
965	2110.0
966	2106.0
967	2064.0
968	2048.0
969	2085.0
970	2084.0
971	2096.0
972	2087.0
973	2045.0
974	2052.0
975	2038.0
976	2070.0
977	2068.0
978	2079.0
979	2070.0
980	2051.0
981	2039.0
982	2019.0
983	2798.0
984	2981.0
985	2517.0
986	2278.0
987	2197.0
988	2137.0
989	2116.0
990	2114.0
991	2114.0
992	2071.0
993	2082.0
994	2082.0
995	2318.0
996	2384.0
997	2268.0
998	2276.0
999	2274.0
1000	2268.0
1001	2228.0
1002	2212.0
1003	2232.0
1004	2284.0
1005	2303.0
1006	2320.0
1007	2356.0
1008	2390.0
1009	2462.0
1010	2501.0
1011	2510.0
1012	2510.0
1013	2558.0
1014	2584.0
1015	2596.0
1016	2603.0
1017	2667.0
1018	2713.0
1019	2699.0
1020	2709.0
1021	2734.0
1022	2741.0
1023	2726.0
1024	2740.0
1025	2734.0
1026	2751.0
1027	2751.0
1028	2809.0
1029	2900.0
1030	2887.0
1031	2845.0
1032	2848.0
1033	2877.0
1034	2882.0
1035	2923.0
1036	2964.0
1037	2993.0
1038	2921.0
1039	2943.0
1040	3012.0
1041	3345.0
1042	3406.0
1043	3200.0
1044	3127.0
1045	3078.0
1046	3032.0
1047	3518.0
1048	3663.0
1049	3366.0
1050	3209.0
1051	3181.0
1052	3206.0
1053	3189.0
1054	3170.0
1055	3164.0
1056	3175.0
1057	3180.0
1058	3168.0
1059	3218.0
1060	3233.0
1061	3217.0
1062	3292.0
1063	3312.0
1064	3242.0
1065	3199.0
1066	3168.0
1067	3223.0
1068	3235.0
1069	3332.0
1070	3618.0
1071	3649.0
1072	3545.0
1073	3420.0
1074	3366.0
1075	3365.0
1076	3347.0
1077	3344.0
1078	3315.0
1079	3389.0
1080	3371.0
1081	3325.0
1082	3329.0
1083	3321.0
1084	3334.0
1085	3340.0
1086	3329.0
1087	3356.0
1088	3490.0
1089	3529.0
1090	3409.0
1091	3384.0
1092	3414.0
1093	3399.0
1094	3536.0
1095	3531.0
1096	3465.0
1097	3417.0
1098	3417.0
1099	3429.0
1100	3444.0
1101	4274.0
1102	4469.0
1103	3983.0
1104	3726.0
1105	3588.0
1106	3527.0
1107	3509.0
1108	3452.0
1109	3482.0
1110	3710.0
1111	3740.0
1112	3585.0
1113	3528.0
1114	3506.0
1115	3505.0
1116	3505.0
1117	3493.0
1118	3513.0
1119	3529.0
1120	3566.0
1121	3560.0
1122	3882.0
1123	3956.0
1124	3794.0
1125	3689.0
1126	3640.0
1127	3633.0
1128	3712.0
1129	3742.0
1130	3676.0
1131	3710.0
1132	3702.0
1133	3662.0
1134	3623.0
1135	3622.0
1136	3622.0
1137	3606.0
1138	3569.0
1139	3645.0
1140	3726.0
1141	4095.0
1142	4150.0
1143	3864.0
1144	3702.0
1145	3621.0
1146	3636.0
1147	3690.0
1148	3734.0
1149	3737.0
1150	3788.0
1151	3761.0
1152	3700.0
1153	3721.0
1154	3725.0
1155	3735.0
1156	3796.0
1157	3805.0
1158	3744.0
1159	3725.0
1160	3679.0
1161	3655.0
1162	3690.0
1163	3696.0
1164	3654.0
1165	3612.0
1166	3647.0
1167	3730.0
1168	3737.0
1169	3640.0
1170	3641.0
1171	3632.0
1172	3679.0
1173	3695.0
1174	3854.0
1175	3903.0
1176	3819.0
1177	3794.0
1178	3771.0
1179	3760.0
1180	3741.0
1181	3936.0
1182	4007.0
1183	3965.0
1184	3865.0
1185	3841.0
1186	3788.0
1187	3776.0
1188	3790.0
1189	3747.0
1190	3853.0
1191	3813.0
1192	3729.0
1193	3722.0
1194	3798.0
1195	3796.0
1196	3796.0
1197	3787.0
1198	3779.0
1199	3771.0
1200	3852.0
1201	3915.0
1202	4064.0
1203	4105.0
1204	3954.0
1205	3822.0
1206	3733.0
1207	3680.0
1208	3802.0
1209	3831.0
1210	3750.0
1211	3750.0
1212	3761.0
1213	3740.0
1214	3735.0
1215	3694.0
1216	3693.0
1217	3700.0
1218	3712.0
1219	3729.0
1220	3765.0
1221	3806.0
1222	3813.0
1223	3761.0
1224	3719.0
1225	3748.0
1226	3743.0
1227	3712.0
1228	3705.0
1229	3745.0
1230	3724.0
1231	3910.0
1232	3982.0
1233	3888.0
1234	3798.0
1235	3724.0
1236	3723.0
1237	3732.0
1238	3740.0
1239	3729.0
1240	3725.0
1241	3701.0
1242	3890.0
1243	3896.0
1244	3845.0
1245	3786.0
1246	3751.0
1247	3703.0
1248	3683.0
1249	3687.0
1250	3701.0
1251	3732.0
1252	3703.0
1253	3681.0
1254	3669.0
1255	3680.0
1256	3650.0
1257	3635.0
1258	3644.0
1259	3650.0
1260	3642.0
1261	3563.0
1262	3585.0
1263	3549.0
1264	3497.0
1265	3437.0
1266	3431.0
1267	3383.0
1268	3325.0
1269	3304.0
1270	3220.0
1271	3126.0
1272	3036.0
1273	2965.0
1274	2894.0
1275	2876.0
1276	3098.0
1277	3052.0
1278	2815.0
1279	2705.0
1280	2576.0
1281	2500.0
1282	2445.0
1283	2376.0
1284	2349.0
1285	2298.0
1286	2226.0
1287	2170.0
1288	2157.0
1289	2146.0
1290	2129.0
1291	2082.0
1292	2071.0
1293	2046.0
1294	2257.0
1295	2283.0
1296	2138.0
1297	2094.0
1298	2049.0
1299	2018.0
1300	2001.0
1301	2003.0
1302	1998.0
1303	2025.0
1304	2013.0
1305	1982.0
1306	1957.0
1307	1970.0
1308	2004.0
1309	2018.0
1310	2031.0
1311	2005.0
1312	1996.0
1313	1990.0
1314	2019.0
1315	2111.0
1316	2145.0
1317	2113.0
1318	2109.0
1319	2079.0
1320	2043.0
1321	2101.0
1322	2104.0
1323	2083.0
1324	2094.0
1325	2086.0
1326	2026.0
1327	2030.0
1328	2025.0
1329	2001.0
1330	1992.0
1331	2005.0
1332	2041.0
1333	2025.0
1334	2020.0
1335	2006.0
1336	2018.0
1337	2008.0
1338	1997.0
1339	2366.0
1340	2527.0
1341	2374.0
1342	2353.0
1343	2344.0
1344	2313.0
1345	2224.0
1346	2234.0
1347	2227.0
1348	2106.0
1349	2040.0
1350	2008.0
1351	2014.0
1352	2046.0
1353	2076.0
1354	2098.0
1355	2126.0
1356	2096.0
1357	2287.0
1358	2327.0
1359	2172.0
1360	2385.0
1361	2401.0
1362	2241.0
1363	2143.0
1364	2230.0
1365	2243.0
1366	2159.0
1367	2293.0
1368	2293.0
1369	2199.0
1370	2141.0
1371	2096.0
1372	2080.0
1373	2049.0
1374	2006.0
1375	2068.0
1376	2091.0
1377	2087.0
1378	2066.0
1379	2054.0
1380	2089.0
1381	2096.0
1382	2091.0
1383	2054.0
1384	2059.0
1385	2040.0
1386	2004.0
1387	2009.0
1388	2033.0
1389	2054.0
1390	2044.0
1391	2064.0
1392	2029.0
1393	2046.0
1394	2068.0
1395	2087.0
1396	2089.0
1397	2086.0
1398	2050.0
1399	2033.0
1400	3228.0
1401	3505.0
1402	2797.0
1403	2403.0
1404	2484.0
1405	2450.0
1406	2239.0
1407	2498.0
1408	2550.0
1409	2292.0
1410	2154.0
1411	2079.0
1412	2070.0
1413	2087.0
1414	2080.0
1415	2060.0
1416	2035.0
1417	2037.0
1418	2019.0
1419	2050.0
1420	2033.0
1421	2042.0
1422	2035.0
1423	2056.0
1424	2044.0
1425	2023.0
1426	2011.0
1427	2025.0
1428	2044.0
1429	2095.0
1430	2109.0
1431	2060.0
1432	2021.0
1433	1997.0
1434	2178.0
1435	2264.0
1436	2302.0
1437	2232.0
1438	2114.0
1439	2372.0
1440	2437.0
1441	2267.0
1442	2168.0
1443	2172.0
1444	2122.0
1445	2124.0
1446	2101.0
1447	2093.0
1448	2062.0
1449	2044.0
1450	2040.0
1451	2039.0
1452	2038.0
1453	2017.0
1454	2042.0
1455	2048.0
1456	2055.0
1457	2033.0
1458	2004.0
1459	2292.0
1460	2391.0
1461	2233.0
1462	2170.0
1463	2131.0
1464	2123.0
1465	2119.0
1466	2068.0
1467	2082.0
1468	2080.0
1469	2086.0
1470	2074.0
1471	2068.0
1472	2054.0
1473	2082.0
1474	2053.0
1475	2016.0
1476	2020.0
1477	2036.0
1478	2042.0
1479	2022.0
1480	2011.0
1481	2088.0
1482	2133.0
1483	2090.0
1484	2093.0
1485	2113.0
1486	2084.0
1487	2041.0
1488	1997.0
1489	2025.0
1490	2074.0
1491	2109.0
1492	2148.0
1493	2157.0
1494	2169.0
1495	2160.0
1496	2107.0
1497	2082.0
1498	2052.0
1499	2046.0
1500	2042.0
1501	2031.0
1502	2234.0
1503	2277.0
1504	2156.0
1505	2115.0
1506	2305.0
1507	2369.0
1508	2608.0
1509	2573.0
1510	2289.0
1511	2146.0
1512	2263.0
1513	2266.0
1514	2121.0
1515	2082.0
1516	2066.0
1517	2091.0
1518	2086.0
1519	2058.0
1520	2041.0
1521	2060.0
1522	2092.0
1523	2060.0
1524	2032.0
1525	2004.0
1526	2003.0
1527	1970.0
1528	1962.0
1529	1971.0
1530	2003.0
1531	1989.0
1532	2190.0
1533	2242.0
1534	2132.0
1535	2080.0
1536	2051.0
1537	2086.0
1538	2074.0
1539	2012.0
1540	1981.0
1541	2023.0
1542	2031.0
1543	2025.0
1544	2027.0
1545	2072.0
1546	2068.0
1547	2038.0
1548	2030.0
1549	1988.0
1550	1999.0
1551	2036.0
1552	2098.0
1553	2091.0
1554	2079.0
1555	2040.0
1556	2007.0
1557	2020.0
1558	2070.0
1559	2085.0
1560	2048.0
1561	2026.0
1562	2013.0
1563	2024.0
1564	2035.0
1565	2034.0
1566	2006.0
1567	2028.0
1568	2053.0
1569	2048.0
1570	2076.0
1571	2126.0
1572	2129.0
1573	2064.0
1574	2050.0
1575	2030.0
1576	2018.0
1577	2296.0
1578	2404.0
1579	2234.0
1580	2107.0
